# OpenSignals Text File Format
# {"00:07:80:3B:46:13": {"sensor": ["EDA", "ECG", "RAW"], "device name": "00:07:80:3B:46:13", "column": ["nSeq", "DI", "CH1", "CH2", "CH3"], "sync interval": 2, "time": "17:12:44.300", "comments": "", "device connection": "BTH00:07:80:3B:46:13", "channels": [1, 2, 3], "keywords": "", "convertedValues": 0, "digital IO": [0, 1], "mode": 0, "date": "2021-1-6", "firmware version": 514, "device": "bioplux", "position": 0, "sampling rate": 1000, "label": ["CH1", "CH2", "CH3"], "resolution": [12, 12, 12], "forcePlatform values": [0.0, 0.0, 0.0, 0.0, 0.0, 0.0, 0.0, 0.0], "special": [{}, {}, {}]}}
# EndOfHeader
0	0	1	3792	3087	
1	0	1	3897	3099	
2	0	1	3959	3125	
3	0	1	3994	3155	
4	0	1	4011	3174	
5	0	1	4018	3186	
6	0	1	2711	3179	
7	0	1	1491	3164	
8	0	1	825	3120	
9	0	1	459	3097	
10	0	1	255	3085	
11	0	1	142	3103	
12	0	1	81	3133	
13	0	1	49	3150	
14	0	1	33	3179	
15	0	1	27	3182	
16	0	1	1563	3178	
17	0	1	2649	3161	
18	0	1	3252	3122	
19	0	1	3591	3093	
20	0	1	3788	3087	
21	0	1	3897	3099	
22	0	1	3954	3127	
23	0	1	3992	3153	
24	0	1	4011	3174	
25	0	1	4017	3189	
26	0	1	2739	3187	
27	0	1	1504	3155	
28	0	1	830	3125	
29	0	1	462	3091	
30	0	1	257	3086	
31	0	1	144	3108	
32	0	1	82	3122	
33	0	1	49	3148	
34	0	1	34	3178	
35	0	1	27	3194	
36	0	1	1561	3179	
37	0	1	2650	3157	
38	0	1	3254	3125	
39	0	1	3594	3094	
40	0	1	3788	3087	
41	0	1	3896	3100	
42	0	1	3959	3124	
43	0	1	3994	3151	
44	0	1	4012	3177	
45	0	1	4018	3189	
46	0	1	2716	3180	
47	0	1	1488	3165	
48	0	1	824	3128	
49	0	1	458	3094	
50	0	1	254	3084	
51	0	1	142	3097	
52	0	1	82	3131	
53	0	1	48	3155	
54	0	1	33	3175	
55	0	1	27	3187	
56	0	1	1603	3179	
57	0	1	2678	3163	
58	0	1	3269	3121	
59	0	1	3601	3093	
60	0	1	3791	3086	
61	0	1	3900	3100	
62	0	1	3963	3125	
63	0	1	3994	3152	
64	0	1	4006	3177	
65	0	1	4018	3189	
66	0	1	2669	3176	
67	0	1	1465	3154	
68	0	1	807	3127	
69	0	1	448	3098	
70	0	1	250	3085	
71	0	1	139	3098	
72	0	1	80	3132	
73	0	1	49	3157	
74	0	1	33	3175	
75	0	1	27	3186	
76	0	1	1643	3181	
77	0	1	2696	3162	
78	0	1	3280	3119	
79	0	1	3609	3091	
80	0	1	3795	3087	
81	0	1	3901	3101	
82	0	1	3964	3126	
83	0	1	3995	3153	
84	0	1	4011	3177	
85	0	1	4017	3189	
86	0	1	2634	3178	
87	0	1	1443	3153	
88	0	1	798	3127	
89	0	1	443	3099	
90	0	1	246	3087	
91	0	1	137	3100	
92	0	1	79	3123	
93	0	1	48	3161	
94	0	1	33	3177	
95	0	1	27	3179	
96	0	1	1673	3177	
97	0	1	2712	3161	
98	0	1	3289	3122	
99	0	1	3613	3093	
100	0	1	3799	3088	
101	0	1	3904	3101	
102	0	1	3963	3127	
103	0	1	3991	3155	
104	0	1	4010	3176	
105	0	1	4016	3186	
106	0	1	2595	3180	
107	0	1	1424	3149	
108	0	1	787	3116	
109	0	1	439	3100	
110	0	1	243	3089	
111	0	1	136	3109	
112	0	1	78	3125	
113	0	1	48	3152	
114	0	1	32	3177	
115	0	1	27	3190	
116	0	1	1712	3178	
117	0	1	2737	3154	
118	0	1	3296	3121	
119	0	1	3618	3092	
120	0	1	3798	3088	
121	0	1	3904	3104	
122	0	1	3963	3127	
123	0	1	3994	3155	
124	0	1	4011	3179	
125	0	1	4018	3185	
126	0	1	2590	3176	
127	0	1	1424	3154	
128	0	1	786	3126	
129	0	1	439	3093	
130	0	1	244	3091	
131	0	1	136	3109	
132	0	1	78	3124	
133	0	1	47	3154	
134	0	1	33	3180	
135	0	1	28	3187	
136	0	1	1675	3185	
137	0	1	2713	3155	
138	0	1	3287	3116	
139	0	1	3610	3093	
140	0	1	3797	3087	
141	0	1	3903	3104	
142	0	1	3963	3130	
143	0	1	3997	3155	
144	0	1	4011	3174	
145	0	1	4018	3187	
146	0	1	2612	3182	
147	0	1	1433	3155	
148	0	1	791	3112	
149	0	1	440	3089	
150	0	1	244	3089	
151	0	1	137	3110	
152	0	1	78	3133	
153	0	1	47	3156	
154	0	1	32	3178	
155	0	1	28	3183	
156	0	1	1700	3178	
157	0	1	2730	3157	
158	0	1	3298	3121	
159	0	1	3619	3092	
160	0	1	3801	3088	
161	0	1	3904	3104	
162	0	1	3964	3129	
163	0	1	3997	3155	
164	0	1	4012	3176	
165	0	1	4018	3186	
166	0	1	2589	3186	
167	0	1	1419	3159	
168	0	1	784	3119	
169	0	1	436	3088	
170	0	1	243	3085	
171	0	1	135	3103	
172	0	1	78	3134	
173	0	1	47	3162	
174	0	1	32	3180	
175	0	1	27	3186	
176	0	1	1729	3174	
177	0	1	2748	3154	
178	0	1	3308	3117	
179	0	1	3623	3092	
180	0	1	3806	3088	
181	0	1	3908	3104	
182	0	1	3965	3130	
183	0	1	3998	3156	
184	0	1	4013	3176	
185	0	1	4020	3186	
186	0	1	2534	3186	
187	0	1	1392	3152	
188	0	1	769	3117	
189	0	1	427	3086	
190	0	1	237	3085	
191	0	1	132	3107	
192	0	1	75	3136	
193	0	1	46	3158	
194	0	1	32	3171	
195	0	1	27	3181	
196	0	1	1781	3186	
197	0	1	2777	3152	
198	0	1	3324	3115	
199	0	1	3633	3091	
200	0	1	3812	3087	
201	0	1	3910	3105	
202	0	1	3968	3132	
203	0	1	3998	3158	
204	0	1	4013	3178	
205	0	1	4019	3187	
206	0	1	2500	3182	
207	0	1	1371	3160	
208	0	1	758	3119	
209	0	1	421	3090	
210	0	1	234	3086	
211	0	1	130	3102	
212	0	1	74	3137	
213	0	1	45	3150	
214	0	1	31	3179	
215	0	1	74	3189	
216	0	1	1822	3176	
217	0	1	2798	3148	
218	0	1	3336	3117	
219	0	1	3640	3092	
220	0	1	3814	3088	
221	0	1	3909	3103	
222	0	1	3968	3132	
223	0	1	3997	3157	
224	0	1	4012	3178	
225	0	1	4018	3190	
226	0	1	2459	3186	
227	0	1	1351	3150	
228	0	1	746	3114	
229	0	1	414	3091	
230	0	1	231	3085	
231	0	1	129	3111	
232	0	1	73	3129	
233	0	1	45	3157	
234	0	1	31	3185	
235	0	1	31	3182	
236	0	1	1783	3180	
237	0	1	2778	3152	
238	0	1	3321	3118	
239	0	1	3630	3091	
240	0	1	3808	3088	
241	0	1	3909	3106	
242	0	1	3965	3128	
243	0	1	3996	3157	
244	0	1	4013	3181	
245	0	1	4017	3186	
246	0	1	2497	3178	
247	0	1	1366	3152	
248	0	1	758	3124	
249	0	1	421	3088	
250	0	1	234	3088	
251	0	1	131	3110	
252	0	1	75	3128	
253	0	1	45	3156	
254	0	1	32	3181	
255	0	1	33	3182	
256	0	1	1789	3175	
257	0	1	2774	3158	
258	0	1	3323	3117	
259	0	1	3632	3091	
260	0	1	3806	3088	
261	0	1	3910	3103	
262	0	1	3966	3131	
263	0	1	3996	3154	
264	0	1	4012	3179	
265	0	1	4017	3188	
266	0	1	2507	3178	
267	0	1	1377	3152	
268	0	1	760	3114	
269	0	1	421	3092	
270	0	1	234	3094	
271	0	1	131	3103	
272	0	1	75	3122	
273	0	1	46	3153	
274	0	1	32	3183	
275	0	1	45	3191	
276	0	1	1798	3175	
277	0	1	2784	3151	
278	0	1	3328	3120	
279	0	1	3635	3091	
280	0	1	3812	3089	
281	0	1	3910	3104	
282	0	1	3966	3128	
283	0	1	3998	3159	
284	0	1	4013	3181	
285	0	1	4018	3187	
286	0	1	2494	3183	
287	0	1	1368	3154	
288	0	1	754	3115	
289	0	1	417	3094	
290	0	1	233	3096	
291	0	1	130	3110	
292	0	1	74	3130	
293	0	1	45	3157	
294	0	1	32	3175	
295	0	1	79	3194	
296	0	1	1823	3176	
297	0	1	2797	3151	
298	0	1	3335	3116	
299	0	1	3638	3091	
300	0	1	3815	3087	
301	0	1	3911	3106	
302	0	1	3967	3132	
303	0	1	3997	3157	
304	0	1	4010	3181	
305	0	1	4018	3187	
306	0	1	2457	3177	
307	0	1	1347	3152	
308	0	1	747	3124	
309	0	1	413	3091	
310	0	1	230	3089	
311	0	1	128	3111	
312	0	1	73	3130	
313	0	1	44	3164	
314	0	1	30	3183	
315	0	1	53	3185	
316	0	1	1807	3176	
317	0	1	2789	3153	
318	0	1	3329	3118	
319	0	1	3635	3092	
320	0	1	3811	3089	
321	0	1	3910	3107	
322	0	1	3965	3132	
323	0	1	3996	3157	
324	0	1	4011	3177	
325	0	1	4017	3187	
326	0	1	2441	3179	
327	0	1	1339	3148	
328	0	1	739	3115	
329	0	1	410	3089	
330	0	1	228	3095	
331	0	1	128	3106	
332	0	1	73	3130	
333	0	1	44	3153	
334	0	1	30	3181	
335	0	1	100	3193	
336	0	1	1835	3179	
337	0	1	2804	3148	
338	0	1	3339	3114	
339	0	1	3640	3091	
340	0	1	3814	3088	
341	0	1	3911	3107	
342	0	1	3966	3131	
343	0	1	3997	3157	
344	0	1	4013	3178	
345	0	1	4018	3189	
346	0	1	2415	3176	
347	0	1	1325	3146	
348	0	1	731	3111	
349	0	1	406	3095	
350	0	1	226	3091	
351	0	1	126	3103	
352	0	1	72	3128	
353	0	1	44	3166	
354	0	1	30	3183	
355	0	1	210	3184	
356	0	1	1901	3182	
357	0	1	2841	3150	
358	0	1	3359	3114	
359	0	1	3652	3090	
360	0	1	3821	3089	
361	0	1	3918	3103	
362	0	1	3968	3131	
363	0	1	3998	3160	
364	0	1	4013	3178	
365	0	1	4016	3190	
366	0	1	2367	3184	
367	0	1	1303	3150	
368	0	1	717	3114	
369	0	1	400	3095	
370	0	1	222	3089	
371	0	1	125	3110	
372	0	1	70	3129	
373	0	1	44	3156	
374	0	1	30	3184	
375	0	1	159	3185	
376	0	1	1864	3178	
377	0	1	2823	3151	
378	0	1	3349	3116	
379	0	1	3644	3089	
380	0	1	3817	3089	
381	0	1	3913	3104	
382	0	1	3967	3133	
383	0	1	3998	3158	
384	0	1	4007	3179	
385	0	1	4019	3188	
386	0	1	2425	3181	
387	0	1	1332	3157	
388	0	1	738	3115	
389	0	1	410	3098	
390	0	1	227	3085	
391	0	1	127	3103	
392	0	1	72	3128	
393	0	1	45	3157	
394	0	1	30	3178	
395	0	1	151	3184	
396	0	1	1868	3173	
397	0	1	2822	3149	
398	0	1	3347	3116	
399	0	1	3644	3090	
400	0	1	3819	3088	
401	0	1	3915	3104	
402	0	1	3968	3132	
403	0	1	3998	3161	
404	0	1	4011	3182	
405	0	1	4018	3187	
406	0	1	2382	3176	
407	0	1	1306	3151	
408	0	1	721	3121	
409	0	1	400	3089	
410	0	1	222	3085	
411	0	1	124	3109	
412	0	1	71	3136	
413	0	1	44	3158	
414	0	1	30	3179	
415	0	1	197	3182	
416	0	1	1890	3184	
417	0	1	2835	3148	
418	0	1	3352	3111	
419	0	1	3650	3090	
420	0	1	3820	3089	
421	0	1	3916	3104	
422	0	1	3968	3134	
423	0	1	3999	3161	
424	0	1	4012	3179	
425	0	1	4009	3186	
426	0	1	2329	3184	
427	0	1	1281	3154	
428	0	1	708	3108	
429	0	1	392	3086	
430	0	1	218	3095	
431	0	1	122	3114	
432	0	1	69	3132	
433	0	1	43	3167	
434	0	1	29	3176	
435	0	1	292	3182	
436	0	1	1941	3182	
437	0	1	2863	3150	
438	0	1	3371	3112	
439	0	1	3656	3090	
440	0	1	3826	3087	
441	0	1	3919	3106	
442	0	1	3970	3134	
443	0	1	3997	3161	
444	0	1	4012	3180	
445	0	1	4019	3187	
446	0	1	2304	3175	
447	0	1	1263	3141	
448	0	1	697	3112	
449	0	1	388	3086	
450	0	1	215	3096	
451	0	1	120	3110	
452	0	1	69	3127	
453	0	1	42	3157	
454	0	1	30	3186	
455	0	1	358	3192	
456	0	1	1970	3174	
457	0	1	2883	3144	
458	0	1	3383	3110	
459	0	1	3665	3089	
460	0	1	3829	3089	
461	0	1	3921	3106	
462	0	1	3970	3132	
463	0	1	3997	3162	
464	0	1	4013	3183	
465	0	1	4020	3187	
466	0	1	2259	3175	
467	0	1	1242	3145	
468	0	1	686	3108	
469	0	1	381	3096	
470	0	1	211	3095	
471	0	1	118	3106	
472	0	1	67	3134	
473	0	1	42	3160	
474	0	1	30	3178	
475	0	1	405	3188	
476	0	1	1996	3182	
477	0	1	2895	3152	
478	0	1	3388	3113	
479	0	1	3671	3091	
480	0	1	3831	3090	
481	0	1	3920	3109	
482	0	1	3971	3134	
483	0	1	3999	3159	
484	0	1	4014	3182	
485	0	1	4019	3190	
486	0	1	2252	3182	
487	0	1	1233	3147	
488	0	1	681	3117	
489	0	1	377	3085	
490	0	1	210	3084	
491	0	1	118	3112	
492	0	1	68	3142	
493	0	1	41	3159	
494	0	1	29	3181	
495	0	1	445	3184	
496	0	1	2019	3177	
497	0	1	2908	3152	
498	0	1	3397	3110	
499	0	1	3673	3088	
500	0	1	3832	3091	
501	0	1	3922	3107	
502	0	1	3974	3138	
503	0	1	4000	3163	
504	0	1	4013	3181	
505	0	1	4002	3186	
506	0	1	2209	3180	
507	0	1	1209	3145	
508	0	1	667	3106	
509	0	1	370	3081	
510	0	1	206	3086	
511	0	1	115	3106	
512	0	1	66	3137	
513	0	1	41	3169	
514	0	1	29	3183	
515	0	1	517	3186	
516	0	1	2063	3174	
517	0	1	2929	3150	
518	0	1	3409	3109	
519	0	1	3677	3088	
520	0	1	3839	3089	
521	0	1	3926	3108	
522	0	1	3974	3138	
523	0	1	4000	3162	
524	0	1	4012	3181	
525	0	1	3976	3186	
526	0	1	2175	3175	
527	0	1	1194	3138	
528	0	1	657	3107	
529	0	1	365	3096	
530	0	1	203	3094	
531	0	1	114	3106	
532	0	1	65	3134	
533	0	1	41	3163	
534	0	1	29	3189	
535	0	1	588	3183	
536	0	1	2096	3172	
537	0	1	2946	3149	
538	0	1	3421	3108	
539	0	1	3689	3088	
540	0	1	3843	3089	
541	0	1	3926	3111	
542	0	1	3974	3140	
543	0	1	4000	3163	
544	0	1	4008	3180	
545	0	1	3903	3186	
546	0	1	2127	3172	
547	0	1	1168	3140	
548	0	1	645	3114	
549	0	1	357	3089	
550	0	1	198	3091	
551	0	1	111	3108	
552	0	1	64	3145	
553	0	1	39	3166	
554	0	1	29	3183	
555	0	1	625	3186	
556	0	1	2117	3181	
557	0	1	2958	3142	
558	0	1	3427	3107	
559	0	1	3693	3088	
560	0	1	3844	3092	
561	0	1	3928	3111	
562	0	1	3976	3136	
563	0	1	4002	3165	
564	0	1	4015	3181	
565	0	1	3845	3185	
566	0	1	2092	3170	
567	0	1	1150	3144	
568	0	1	636	3116	
569	0	1	353	3087	
570	0	1	196	3088	
571	0	1	110	3104	
572	0	1	64	3139	
573	0	1	40	3166	
574	0	1	28	3183	
575	0	1	639	3186	
576	0	1	2121	3180	
577	0	1	2963	3142	
578	0	1	3427	3107	
579	0	1	3690	3088	
580	0	1	3844	3093	
581	0	1	3928	3114	
582	0	1	3976	3138	
583	0	1	4002	3162	
584	0	1	4014	3184	
585	0	1	3810	3186	
586	0	1	2073	3173	
587	0	1	1138	3148	
588	0	1	629	3111	
589	0	1	349	3086	
590	0	1	194	3088	
591	0	1	109	3115	
592	0	1	63	3145	
593	0	1	39	3158	
594	0	1	29	3188	
595	0	1	682	3188	
596	0	1	2148	3171	
597	0	1	2977	3141	
598	0	1	3435	3108	
599	0	1	3695	3088	
600	0	1	3846	3091	
601	0	1	3931	3113	
602	0	1	3977	3136	
603	0	1	4000	3164	
604	0	1	4014	3185	
605	0	1	3817	3186	
606	0	1	2080	3173	
607	0	1	1141	3142	
608	0	1	630	3107	
609	0	1	352	3096	
610	0	1	196	3088	
611	0	1	110	3111	
612	0	1	64	3145	
613	0	1	40	3168	
614	0	1	29	3180	
615	0	1	658	3182	
616	0	1	2134	3177	
617	0	1	2968	3146	
618	0	1	3432	3106	
619	0	1	3695	3088	
620	0	1	3846	3089	
621	0	1	3928	3111	
622	0	1	3975	3140	
623	0	1	4002	3163	
624	0	1	4014	3184	
625	0	1	3860	3186	
626	0	1	2102	3177	
627	0	1	1153	3143	
628	0	1	638	3108	
629	0	1	356	3091	
630	0	1	197	3090	
631	0	1	112	3112	
632	0	1	64	3145	
633	0	1	40	3161	
634	0	1	29	3182	
635	0	1	634	3185	
636	0	1	2121	3179	
637	0	1	2962	3145	
638	0	1	3429	3108	
639	0	1	3691	3088	
640	0	1	3843	3093	
641	0	1	3930	3109	
642	0	1	3976	3136	
643	0	1	3994	3165	
644	0	1	4014	3184	
645	0	1	3893	3185	
646	0	1	2123	3172	
647	0	1	1164	3141	
648	0	1	643	3116	
649	0	1	359	3087	
650	0	1	200	3087	
651	0	1	112	3114	
652	0	1	65	3137	
653	0	1	40	3164	
654	0	1	29	3184	
655	0	1	608	3193	
656	0	1	2107	3173	
657	0	1	2952	3140	
658	0	1	3420	3108	
659	0	1	3688	3088	
660	0	1	3840	3091	
661	0	1	3928	3111	
662	0	1	3976	3139	
663	0	1	4000	3163	
664	0	1	4014	3180	
665	0	1	3897	3185	
666	0	1	2124	3175	
667	0	1	1170	3150	
668	0	1	645	3108	
669	0	1	359	3090	
670	0	1	200	3088	
671	0	1	113	3106	
672	0	1	65	3142	
673	0	1	40	3168	
674	0	1	29	3180	
675	0	1	575	3183	
676	0	1	2090	3181	
677	0	1	2943	3143	
678	0	1	3417	3109	
679	0	1	3686	3089	
680	0	1	3839	3090	
681	0	1	3924	3111	
682	0	1	3974	3136	
683	0	1	4001	3162	
684	0	1	4015	3182	
685	0	1	3956	3188	
686	0	1	2163	3181	
687	0	1	1186	3144	
688	0	1	656	3110	
689	0	1	366	3090	
690	0	1	203	3096	
691	0	1	114	3109	
692	0	1	66	3135	
693	0	1	41	3167	
694	0	1	29	3178	
695	0	1	541	3186	
696	0	1	2068	3173	
697	0	1	2934	3149	
698	0	1	3411	3110	
699	0	1	3683	3088	
700	0	1	3834	3092	
701	0	1	3924	3108	
702	0	1	3975	3136	
703	0	1	4000	3164	
704	0	1	4014	3180	
705	0	1	3975	3186	
706	0	1	2179	3173	
707	0	1	1199	3153	
708	0	1	665	3106	
709	0	1	368	3090	
710	0	1	204	3095	
711	0	1	116	3109	
712	0	1	67	3138	
713	0	1	41	3164	
714	0	1	29	3182	
715	0	1	520	3189	
716	0	1	2059	3182	
717	0	1	2924	3144	
718	0	1	3406	3107	
719	0	1	3678	3089	
720	0	1	3838	3089	
721	0	1	3925	3110	
722	0	1	3974	3138	
723	0	1	4000	3162	
724	0	1	4005	3180	
725	0	1	3986	3188	
726	0	1	2189	3173	
727	0	1	1202	3141	
728	0	1	665	3117	
729	0	1	368	3088	
730	0	1	204	3087	
731	0	1	115	3116	
732	0	1	66	3139	
733	0	1	41	3158	
734	0	1	29	3177	
735	0	1	562	3186	
736	0	1	2082	3180	
737	0	1	2940	3140	
738	0	1	3417	3109	
739	0	1	3687	3089	
740	0	1	3840	3092	
741	0	1	3925	3111	
742	0	1	3973	3136	
743	0	1	4000	3161	
744	0	1	4014	3183	
745	0	1	3960	3187	
746	0	1	2162	3176	
747	0	1	1186	3149	
748	0	1	654	3109	
749	0	1	363	3089	
750	0	1	202	3088	
751	0	1	113	3112	
752	0	1	64	3137	
753	0	1	41	3166	
754	0	1	29	3189	
755	0	1	591	3182	
756	0	1	2099	3171	
757	0	1	2948	3148	
758	0	1	3421	3108	
759	0	1	3687	3088	
760	0	1	3840	3091	
761	0	1	3925	3108	
762	0	1	3975	3136	
763	0	1	4002	3166	
764	0	1	4013	3181	
765	0	1	3925	3186	
766	0	1	2140	3175	
767	0	1	1178	3151	
768	0	1	652	3105	
769	0	1	361	3085	
770	0	1	201	3097	
771	0	1	113	3108	
772	0	1	64	3137	
773	0	1	40	3168	
774	0	1	29	3182	
775	0	1	582	3181	
776	0	1	2092	3175	
777	0	1	2946	3150	
778	0	1	3420	3108	
779	0	1	3685	3088	
780	0	1	3839	3091	
781	0	1	3926	3107	
782	0	1	3974	3137	
783	0	1	4002	3165	
784	0	1	4013	3181	
785	0	1	3951	3185	
786	0	1	2162	3171	
787	0	1	1189	3150	
788	0	1	658	3107	
789	0	1	366	3081	
790	0	1	203	3093	
791	0	1	114	3110	
792	0	1	66	3129	
793	0	1	40	3166	
794	0	1	29	3178	
795	0	1	527	3184	
796	0	1	2061	3182	
797	0	1	2927	3143	
798	0	1	3409	3108	
799	0	1	3679	3088	
800	0	1	3839	3089	
801	0	1	3924	3107	
802	0	1	3974	3136	
803	0	1	3999	3165	
804	0	1	4012	3180	
805	0	1	3955	3185	
806	0	1	2159	3180	
807	0	1	1183	3145	
808	0	1	653	3108	
809	0	1	364	3087	
810	0	1	202	3097	
811	0	1	113	3109	
812	0	1	65	3136	
813	0	1	40	3159	
814	0	1	29	3189	
815	0	1	593	3186	
816	0	1	2100	3172	
817	0	1	2951	3149	
818	0	1	3422	3107	
819	0	1	3689	3088	
820	0	1	3843	3090	
821	0	1	3926	3109	
822	0	1	3974	3139	
823	0	1	4002	3165	
824	0	1	4013	3182	
825	0	1	3915	3185	
826	0	1	2131	3181	
827	0	1	1171	3143	
828	0	1	648	3106	
829	0	1	359	3092	
830	0	1	199	3098	
831	0	1	111	3100	
832	0	1	65	3139	
833	0	1	40	3162	
834	0	1	28	3182	
835	0	1	607	3180	
836	0	1	2109	3172	
837	0	1	2952	3147	
838	0	1	3420	3109	
839	0	1	3688	3088	
840	0	1	3842	3092	
841	0	1	3927	3112	
842	0	1	3968	3135	
843	0	1	4000	3163	
844	0	1	4015	3185	
845	0	1	3928	3187	
846	0	1	2144	3172	
847	0	1	1179	3137	
848	0	1	649	3111	
849	0	1	362	3085	
850	0	1	201	3085	
851	0	1	113	3112	
852	0	1	64	3144	
853	0	1	40	3160	
854	0	1	29	3174	
855	0	1	603	3186	
856	0	1	2104	3178	
857	0	1	2950	3143	
858	0	1	3422	3106	
859	0	1	3687	3088	
860	0	1	3840	3089	
861	0	1	3926	3108	
862	0	1	3975	3136	
863	0	1	3999	3165	
864	0	1	4014	3184	
865	0	1	3952	3186	
866	0	1	2162	3173	
867	0	1	1185	3143	
868	0	1	657	3114	
869	0	1	365	3094	
870	0	1	202	3088	
871	0	1	113	3108	
872	0	1	65	3144	
873	0	1	40	3160	
874	0	1	28	3175	
875	0	1	546	3188	
876	0	1	2073	3182	
877	0	1	2932	3144	
878	0	1	3411	3107	
879	0	1	3682	3089	
880	0	1	3836	3089	
881	0	1	3927	3111	
882	0	1	3974	3136	
883	0	1	4000	3162	
884	0	1	4012	3183	
885	0	1	3957	3186	
886	0	1	2161	3171	
887	0	1	1190	3149	
888	0	1	658	3116	
889	0	1	365	3087	
890	0	1	203	3090	
891	0	1	114	3115	
892	0	1	65	3143	
893	0	1	40	3162	
894	0	1	28	3172	
895	0	1	525	3182	
896	0	1	2065	3176	
897	0	1	2932	3147	
898	0	1	3405	3108	
899	0	1	3682	3088	
900	0	1	3838	3090	
901	0	1	3925	3108	
902	0	1	3973	3136	
903	0	1	4000	3165	
904	0	1	4014	3182	
905	0	1	3934	3185	
906	0	1	2145	3182	
907	0	1	1175	3145	
908	0	1	649	3104	
909	0	1	361	3085	
910	0	1	200	3097	
911	0	1	112	3109	
912	0	1	64	3135	
913	0	1	40	3168	
914	0	1	29	3189	
915	0	1	587	3181	
916	0	1	2102	3172	
917	0	1	2951	3149	
918	0	1	3422	3106	
919	0	1	3687	3089	
920	0	1	3840	3089	
921	0	1	3926	3111	
922	0	1	3976	3140	
923	0	1	4000	3164	
924	0	1	4014	3181	
925	0	1	3878	3186	
926	0	1	2105	3172	
927	0	1	1158	3136	
928	0	1	638	3106	
929	0	1	356	3096	
930	0	1	197	3093	
931	0	1	110	3108	
932	0	1	63	3145	
933	0	1	39	3162	
934	0	1	29	3179	
935	0	1	693	3192	
936	0	1	2159	3173	
937	0	1	2983	3142	
938	0	1	3438	3108	
939	0	1	3698	3088	
940	0	1	3845	3090	
941	0	1	3925	3112	
942	0	1	3976	3139	
943	0	1	4003	3163	
944	0	1	4013	3182	
945	0	1	3835	3185	
946	0	1	2085	3170	
947	0	1	1144	3138	
948	0	1	634	3114	
949	0	1	351	3087	
950	0	1	195	3091	
951	0	1	109	3109	
952	0	1	63	3146	
953	0	1	39	3165	
954	0	1	28	3183	
955	0	1	705	3187	
956	0	1	2164	3179	
957	0	1	2982	3141	
958	0	1	3433	3104	
959	0	1	3696	3088	
960	0	1	3845	3091	
961	0	1	3928	3114	
962	0	1	3978	3138	
963	0	1	4000	3163	
964	0	1	4013	3183	
965	0	1	3810	3185	
966	0	1	2079	3180	
967	0	1	1140	3139	
968	0	1	629	3106	
969	0	1	350	3093	
970	0	1	195	3098	
971	0	1	109	3110	
972	0	1	63	3137	
973	0	1	39	3167	
974	0	1	28	3188	
975	0	1	710	3183	
976	0	1	2165	3174	
977	0	1	2983	3143	
978	0	1	3438	3105	
979	0	1	3697	3088	
980	0	1	3844	3090	
981	0	1	3928	3110	
982	0	1	3978	3140	
983	0	1	4002	3163	
984	0	1	4013	3181	
985	0	1	3844	3185	
986	0	1	2094	3174	
987	0	1	1151	3143	
988	0	1	635	3107	
989	0	1	353	3095	
990	0	1	197	3087	
991	0	1	110	3108	
992	0	1	63	3144	
993	0	1	39	3163	
994	0	1	28	3189	
995	0	1	652	3183	
996	0	1	2132	3173	
997	0	1	2965	3143	
998	0	1	3428	3110	
999	0	1	3692	3088	
1000	0	1	3843	3092	
1001	0	1	3928	3110	
1002	0	1	3977	3137	
1003	0	1	4000	3165	
1004	0	1	4006	3180	
1005	0	1	3870	3185	
1006	0	1	2106	3172	
1007	0	1	1159	3149	
1008	0	1	642	3100	
1009	0	1	355	3088	
1010	0	1	197	3094	
1011	0	1	111	3110	
1012	0	1	64	3139	
1013	0	1	39	3171	
1014	0	1	28	3177	
1015	0	1	622	3184	
1016	0	1	2116	3181	
1017	0	1	2956	3143	
1018	0	1	3423	3105	
1019	0	1	3686	3088	
1020	0	1	3840	3090	
1021	0	1	3925	3111	
1022	0	1	3976	3136	
1023	0	1	4000	3162	
1024	0	1	4014	3183	
1025	0	1	3957	3188	
1026	0	1	2165	3181	
1027	0	1	1188	3143	
1028	0	1	656	3108	
1029	0	1	366	3096	
1030	0	1	203	3088	
1031	0	1	113	3110	
1032	0	1	65	3144	
1033	0	1	40	3164	
1034	0	1	28	3182	
1035	0	1	596	3184	
1036	0	1	2099	3177	
1037	0	1	2948	3143	
1038	0	1	3420	3108	
1039	0	1	3686	3088	
1040	0	1	3834	3090	
1041	0	1	3926	3111	
1042	0	1	3975	3137	
1043	0	1	4000	3161	
1044	0	1	4012	3180	
1045	0	1	3941	3188	
1046	0	1	2155	3168	
1047	0	1	1185	3144	
1048	0	1	655	3106	
1049	0	1	364	3095	
1050	0	1	202	3096	
1051	0	1	113	3111	
1052	0	1	64	3136	
1053	0	1	39	3160	
1054	0	1	28	3182	
1055	0	1	548	3193	
1056	0	1	2072	3179	
1057	0	1	2933	3144	
1058	0	1	3410	3108	
1059	0	1	3681	3089	
1060	0	1	3836	3091	
1061	0	1	3926	3111	
1062	0	1	3974	3134	
1063	0	1	3998	3162	
1064	0	1	4012	3181	
1065	0	1	3980	3186	
1066	0	1	2188	3182	
1067	0	1	1197	3148	
1068	0	1	661	3105	
1069	0	1	366	3087	
1070	0	1	203	3095	
1071	0	1	113	3109	
1072	0	1	64	3136	
1073	0	1	39	3161	
1074	0	1	28	3189	
1075	0	1	601	3184	
1076	0	1	2108	3172	
1077	0	1	2953	3140	
1078	0	1	3423	3108	
1079	0	1	3688	3089	
1080	0	1	3842	3092	
1081	0	1	3926	3110	
1082	0	1	3973	3136	
1083	0	1	3998	3161	
1084	0	1	4014	3181	
1085	0	1	3957	3188	
1086	0	1	2166	3172	
1087	0	1	1188	3141	
1088	0	1	655	3105	
1089	0	1	364	3085	
1090	0	1	202	3095	
1091	0	1	113	3110	
1092	0	1	64	3128	
1093	0	1	40	3163	
1094	0	1	29	3187	
1095	0	1	554	3191	
1096	0	1	2074	3174	
1097	0	1	2936	3145	
1098	0	1	3413	3111	
1099	0	1	3683	3089	
1100	0	1	3836	3090	
1101	0	1	3923	3111	
1102	0	1	3974	3135	
1103	0	1	3999	3162	
1104	0	1	4013	3182	
1105	0	1	3970	3188	
1106	0	1	2172	3182	
1107	0	1	1194	3143	
1108	0	1	660	3109	
1109	0	1	367	3096	
1110	0	1	203	3087	
1111	0	1	113	3109	
1112	0	1	65	3144	
1113	0	1	39	3158	
1114	0	1	28	3173	
1115	0	1	532	3188	
1116	0	1	2064	3180	
1117	0	1	2929	3144	
1118	0	1	3408	3107	
1119	0	1	3681	3088	
1120	0	1	3836	3089	
1121	0	1	3922	3109	
1122	0	1	3973	3136	
1123	0	1	3998	3160	
1124	0	1	4012	3181	
1125	0	1	3997	3188	
1126	0	1	2201	3182	
1127	0	1	1210	3153	
1128	0	1	668	3114	
1129	0	1	370	3088	
1130	0	1	205	3089	
1131	0	1	114	3110	
1132	0	1	65	3143	
1133	0	1	39	3162	
1134	0	1	27	3181	
1135	0	1	543	3191	
1136	0	1	2073	3175	
1137	0	1	2935	3142	
1138	0	1	3412	3110	
1139	0	1	3682	3088	
1140	0	1	3838	3091	
1141	0	1	3924	3111	
1142	0	1	3975	3135	
1143	0	1	4000	3161	
1144	0	1	4013	3184	
1145	0	1	3952	3186	
1146	0	1	2158	3179	
1147	0	1	1181	3145	
1148	0	1	651	3102	
1149	0	1	361	3086	
1150	0	1	200	3098	
1151	0	1	112	3112	
1152	0	1	63	3129	
1153	0	1	39	3161	
1154	0	1	28	3186	
1155	0	1	586	3185	
1156	0	1	2095	3173	
1157	0	1	2949	3144	
1158	0	1	3420	3110	
1159	0	1	3686	3088	
1160	0	1	3839	3091	
1161	0	1	3926	3110	
1162	0	1	3975	3134	
1163	0	1	4000	3162	
1164	0	1	4012	3184	
1165	0	1	3900	3186	
1166	0	1	2123	3172	
1167	0	1	1165	3150	
1168	0	1	641	3115	
1169	0	1	356	3088	
1170	0	1	197	3088	
1171	0	1	110	3118	
1172	0	1	63	3138	
1173	0	1	38	3161	
1174	0	1	27	3178	
1175	0	1	632	3191	
1176	0	1	2118	3174	
1177	0	1	2959	3140	
1178	0	1	3426	3108	
1179	0	1	3690	3089	
1180	0	1	3842	3093	
1181	0	1	3927	3110	
1182	0	1	3976	3136	
1183	0	1	4002	3166	
1184	0	1	4013	3182	
1185	0	1	3872	3185	
1186	0	1	2102	3176	
1187	0	1	1153	3136	
1188	0	1	636	3109	
1189	0	1	353	3085	
1190	0	1	196	3087	
1191	0	1	109	3115	
1192	0	1	63	3135	
1193	0	1	38	3165	
1194	0	1	27	3190	
1195	0	1	675	3183	
1196	0	1	2145	3168	
1197	0	1	2973	3142	
1198	0	1	3431	3109	
1199	0	1	3695	3088	
1200	0	1	3842	3092	
1201	0	1	3928	3112	
1202	0	1	3975	3135	
1203	0	1	4000	3164	
1204	0	1	4012	3184	
1205	0	1	3868	3186	
1206	0	1	2107	3181	
1207	0	1	1157	3145	
1208	0	1	638	3107	
1209	0	1	353	3086	
1210	0	1	196	3094	
1211	0	1	110	3118	
1212	0	1	62	3145	
1213	0	1	38	3167	
1214	0	1	27	3180	
1215	0	1	646	3183	
1216	0	1	2126	3172	
1217	0	1	2961	3145	
1218	0	1	3426	3105	
1219	0	1	3687	3087	
1220	0	1	3840	3090	
1221	0	1	3926	3111	
1222	0	1	3973	3135	
1223	0	1	4000	3163	
1224	0	1	4012	3184	
1225	0	1	3920	3186	
1226	0	1	2142	3174	
1227	0	1	1173	3140	
1228	0	1	650	3103	
1229	0	1	359	3089	
1230	0	1	199	3097	
1231	0	1	112	3107	
1232	0	1	63	3133	
1233	0	1	39	3163	
1234	0	1	27	3189	
1235	0	1	607	3182	
1236	0	1	2107	3181	
1237	0	1	2952	3149	
1238	0	1	3421	3108	
1239	0	1	3688	3088	
1240	0	1	3840	3092	
1241	0	1	3925	3110	
1242	0	1	3974	3135	
1243	0	1	4000	3161	
1244	0	1	4012	3183	
1245	0	1	3952	3187	
1246	0	1	2157	3172	
1247	0	1	1186	3150	
1248	0	1	656	3115	
1249	0	1	363	3088	
1250	0	1	202	3083	
1251	0	1	113	3106	
1252	0	1	64	3142	
1253	0	1	39	3167	
1254	0	1	27	3184	
1255	0	1	589	3183	
1256	0	1	2090	3170	
1257	0	1	2945	3146	
1258	0	1	3417	3111	
1259	0	1	3685	3088	
1260	0	1	3840	3091	
1261	0	1	3923	3109	
1262	0	1	3975	3135	
1263	0	1	3995	3164	
1264	0	1	4011	3184	
1265	0	1	3966	3185	
1266	0	1	2174	3175	
1267	0	1	1192	3144	
1268	0	1	660	3110	
1269	0	1	365	3096	
1270	0	1	203	3092	
1271	0	1	112	3109	
1272	0	1	64	3140	
1273	0	1	38	3159	
1274	0	1	27	3183	
1275	0	1	602	3193	
1276	0	1	2103	3177	
1277	0	1	2950	3143	
1278	0	1	3419	3106	
1279	0	1	3687	3088	
1280	0	1	3839	3090	
1281	0	1	3926	3108	
1282	0	1	3972	3136	
1283	0	1	4000	3163	
1284	0	1	4010	3180	
1285	0	1	3991	3188	
1286	0	1	2200	3179	
1287	0	1	1204	3149	
1288	0	1	666	3109	
1289	0	1	369	3090	
1290	0	1	204	3096	
1291	0	1	113	3106	
1292	0	1	65	3132	
1293	0	1	38	3163	
1294	0	1	27	3188	
1295	0	1	589	3183	
1296	0	1	2094	3174	
1297	0	1	2946	3142	
1298	0	1	3418	3109	
1299	0	1	3684	3089	
1300	0	1	3837	3089	
1301	0	1	3926	3109	
1302	0	1	3971	3138	
1303	0	1	3998	3161	
1304	0	1	4009	3180	
1305	0	1	3985	3186	
1306	0	1	2193	3177	
1307	0	1	1201	3152	
1308	0	1	664	3107	
1309	0	1	367	3086	
1310	0	1	203	3096	
1311	0	1	112	3104	
1312	0	1	63	3138	
1313	0	1	38	3166	
1314	0	1	26	3181	
1315	0	1	577	3184	
1316	0	1	2088	3182	
1317	0	1	2942	3144	
1318	0	1	3414	3108	
1319	0	1	3681	3089	
1320	0	1	3836	3088	
1321	0	1	3922	3108	
1322	0	1	3972	3138	
1323	0	1	3998	3160	
1324	0	1	4004	3181	
1325	0	1	4000	3189	
1326	0	1	2211	3182	
1327	0	1	1212	3145	
1328	0	1	670	3109	
1329	0	1	370	3096	
1330	0	1	205	3089	
1331	0	1	113	3106	
1332	0	1	64	3135	
1333	0	1	38	3169	
1334	0	1	26	3180	
1335	0	1	586	3184	
1336	0	1	2092	3180	
1337	0	1	2944	3148	
1338	0	1	3414	3111	
1339	0	1	3684	3089	
1340	0	1	3836	3090	
1341	0	1	3923	3107	
1342	0	1	3973	3136	
1343	0	1	3996	3162	
1344	0	1	4011	3180	
1345	0	1	4011	3186	
1346	0	1	2228	3183	
1347	0	1	1220	3146	
1348	0	1	671	3108	
1349	0	1	371	3097	
1350	0	1	204	3092	
1351	0	1	113	3106	
1352	0	1	63	3141	
1353	0	1	37	3162	
1354	0	1	26	3181	
1355	0	1	681	3191	
1356	0	1	2150	3175	
1357	0	1	2974	3145	
1358	0	1	3433	3112	
1359	0	1	3694	3089	
1360	0	1	3843	3090	
1361	0	1	3925	3108	
1362	0	1	3973	3135	
1363	0	1	3997	3164	
1364	0	1	4010	3183	
1365	0	1	3934	3186	
1366	0	1	2149	3174	
1367	0	1	1177	3153	
1368	0	1	649	3110	
1369	0	1	358	3084	
1370	0	1	196	3086	
1371	0	1	107	3115	
1372	0	1	60	3137	
1373	0	1	36	3159	
1374	0	1	24	3186	
1375	0	1	787	3186	
1376	0	1	2209	3171	
1377	0	1	3003	3142	
1378	0	1	3450	3109	
1379	0	1	3700	3089	
1380	0	1	3846	3090	
1381	0	1	3927	3111	
1382	0	1	3973	3136	
1383	0	1	3999	3160	
1384	0	1	4008	3181	
1385	0	1	3886	3187	
1386	0	1	2120	3178	
1387	0	1	1162	3152	
1388	0	1	640	3106	
1389	0	1	352	3083	
1390	0	1	194	3094	
1391	0	1	106	3112	
1392	0	1	58	3134	
1393	0	1	34	3161	
1394	0	1	24	3186	
1395	0	1	869	3186	
1396	0	1	2254	3172	
1397	0	1	3025	3146	
1398	0	1	3463	3111	
1399	0	1	3708	3089	
1400	0	1	3850	3089	
1401	0	1	3930	3111	
1402	0	1	3967	3134	
1403	0	1	3998	3162	
1404	0	1	4008	3184	
1405	0	1	3874	3186	
1406	0	1	2117	3174	
1407	0	1	1159	3146	
1408	0	1	635	3109	
1409	0	1	351	3092	
1410	0	1	191	3090	
1411	0	1	105	3108	
1412	0	1	56	3138	
1413	0	1	32	3166	
1414	0	1	22	3174	
1415	0	1	919	3182	
1416	0	1	2280	3182	
1417	0	1	3042	3146	
1418	0	1	3470	3110	
1419	0	1	3708	3089	
1420	0	1	3851	3090	
1421	0	1	3928	3111	
1422	0	1	3972	3136	
1423	0	1	3996	3161	
1424	0	1	4006	3181	
1425	0	1	3711	3186	
1426	0	1	2021	3172	
1427	0	1	1106	3144	
1428	0	1	607	3109	
1429	0	1	333	3097	
1430	0	1	181	3092	
1431	0	1	98	3106	
1432	0	1	54	3142	
1433	0	1	31	3162	
1434	0	1	21	3180	
1435	0	1	1054	3193	
1436	0	1	2357	3172	
1437	0	1	3086	3146	
1438	0	1	3495	3110	
1439	0	1	3727	3089	
1440	0	1	3861	3090	
1441	0	1	3935	3111	
1442	0	1	3976	3138	
1443	0	1	3998	3163	
1444	0	1	4007	3183	
1445	0	1	3608	3185	
1446	0	1	1967	3173	
1447	0	1	1077	3144	
1448	0	1	592	3117	
1449	0	1	324	3092	
1450	0	1	175	3086	
1451	0	1	94	3107	
1452	0	1	50	3145	
1453	0	1	29	3163	
1454	0	1	19	3178	
1455	0	1	1142	3178	
1456	0	1	2407	3176	
1457	0	1	3112	3144	
1458	0	1	3510	3109	
1459	0	1	3734	3089	
1460	0	1	3864	3092	
1461	0	1	3935	3113	
1462	0	1	3977	3136	
1463	0	1	3998	3165	
1464	0	1	4006	3185	
1465	0	1	3507	3185	
1466	0	1	1915	3181	
1467	0	1	1046	3141	
1468	0	1	573	3105	
1469	0	1	313	3096	
1470	0	1	169	3097	
1471	0	1	91	3115	
1472	0	1	48	3136	
1473	0	1	26	3163	
1474	0	1	18	3185	
1475	0	1	1179	3193	
1476	0	1	2428	3173	
1477	0	1	3122	3140	
1478	0	1	3512	3108	
1479	0	1	3735	3088	
1480	0	1	3864	3092	
1481	0	1	3932	3113	
1482	0	1	3975	3136	
1483	0	1	3996	3165	
1484	0	1	4003	3184	
1485	0	1	3484	3189	
1486	0	1	1900	3181	
1487	0	1	1039	3150	
1488	0	1	568	3107	
1489	0	1	310	3086	
1490	0	1	167	3099	
1491	0	1	88	3110	
1492	0	1	46	3136	
1493	0	1	25	3169	
1494	0	1	16	3184	
1495	0	1	1204	3183	
1496	0	1	2442	3178	
1497	0	1	3130	3140	
1498	0	1	3517	3108	
1499	0	1	3737	3089	
1500	0	1	3864	3093	
1501	0	1	3934	3112	
1502	0	1	3974	3136	
1503	0	1	3995	3165	
1504	0	1	4003	3186	
1505	0	1	3392	3186	
1506	0	1	1852	3177	
1507	0	1	1013	3149	
1508	0	1	555	3109	
1509	0	1	302	3089	
1510	0	1	162	3094	
1511	0	1	85	3114	
1512	0	1	44	3139	
1513	0	1	23	3163	
1514	0	1	15	3182	
1515	0	1	1269	3186	
1516	0	1	2478	3176	
1517	0	1	3150	3142	
1518	0	1	3526	3108	
1519	0	1	3743	3088	
1520	0	1	3866	3092	
1521	0	1	3935	3114	
1522	0	1	3975	3136	
1523	0	1	3987	3165	
1524	0	1	4003	3186	
1525	0	1	3364	3189	
1526	0	1	1838	3172	
1527	0	1	1010	3136	
1528	0	1	551	3109	
1529	0	1	300	3095	
1530	0	1	160	3088	
1531	0	1	85	3112	
1532	0	1	43	3146	
1533	0	1	23	3166	
1534	0	1	14	3190	
1535	0	1	1264	3182	
1536	0	1	2478	3170	
1537	0	1	3148	3143	
1538	0	1	3528	3109	
1539	0	1	3744	3088	
1540	0	1	3867	3091	
1541	0	1	3934	3114	
1542	0	1	3972	3141	
1543	0	1	3991	3166	
1544	0	1	4003	3183	
1545	0	1	3328	3185	
1546	0	1	1817	3180	
1547	0	1	994	3147	
1548	0	1	543	3108	
1549	0	1	294	3088	
1550	0	1	157	3096	
1551	0	1	81	3120	
1552	0	1	41	3138	
1553	0	1	21	3164	
1554	0	1	13	3182	
1555	0	1	1316	3190	
1556	0	1	2504	3180	
1557	0	1	3163	3140	
1558	0	1	3535	3105	
1559	0	1	3748	3089	
1560	0	1	3868	3092	
1561	0	1	3935	3115	
1562	0	1	3973	3139	
1563	0	1	3992	3164	
1564	0	1	4000	3182	
1565	0	1	3224	3186	
1566	0	1	1760	3171	
1567	0	1	964	3140	
1568	0	1	525	3106	
1569	0	1	284	3090	
1570	0	1	151	3092	
1571	0	1	79	3114	
1572	0	1	39	3146	
1573	0	1	20	3169	
1574	0	1	11	3180	
1575	0	1	1346	3184	
1576	0	1	2524	3179	
1577	0	1	3171	3142	
1578	0	1	3541	3104	
1579	0	1	3750	3087	
1580	0	1	3869	3092	
1581	0	1	3936	3115	
1582	0	1	3973	3143	
1583	0	1	3992	3167	
1584	0	1	4000	3182	
1585	0	1	3172	3186	
1586	0	1	1734	3176	
1587	0	1	948	3137	
1588	0	1	520	3104	
1589	0	1	281	3094	
1590	0	1	149	3091	
1591	0	1	78	3120	
1592	0	1	38	3137	
1593	0	1	20	3165	
1594	0	1	11	3191	
1595	0	1	1357	3190	
1596	0	1	2527	3178	
1597	0	1	3173	3140	
1598	0	1	3542	3106	
1599	0	1	3750	3087	
1600	0	1	3869	3093	
1601	0	1	3935	3115	
1602	0	1	3973	3140	
1603	0	1	3991	3166	
1604	0	1	3999	3184	
1605	0	1	3170	3182	
1606	0	1	1730	3178	
1607	0	1	945	3144	
1608	0	1	515	3102	
1609	0	1	278	3085	
1610	0	1	147	3097	
1611	0	1	77	3120	
1612	0	1	38	3142	
1613	0	1	19	3159	
1614	0	1	10	3180	
1615	0	1	1381	3192	
1616	0	1	2542	3170	
1617	0	1	3182	3139	
1618	0	1	3546	3107	
1619	0	1	3753	3088	
1620	0	1	3870	3094	
1621	0	1	3930	3113	
1622	0	1	3967	3140	
1623	0	1	3987	3169	
1624	0	1	3997	3185	
1625	0	1	3119	3185	
1626	0	1	1704	3179	
1627	0	1	933	3137	
1628	0	1	510	3107	
1629	0	1	275	3092	
1630	0	1	146	3092	
1631	0	1	74	3114	
1632	0	1	37	3143	
1633	0	1	18	3160	
1634	0	1	10	3191	
1635	0	1	1411	3186	
1636	0	1	2553	3168	
1637	0	1	3188	3140	
1638	0	1	3550	3108	
1639	0	1	3752	3089	
1640	0	1	3870	3094	
1641	0	1	3938	3111	
1642	0	1	3970	3140	
1643	0	1	3992	3168	
1644	0	1	4000	3183	
1645	0	1	3134	3186	
1646	0	1	1716	3175	
1647	0	1	940	3138	
1648	0	1	511	3104	
1649	0	1	276	3092	
1650	0	1	145	3094	
1651	0	1	75	3113	
1652	0	1	36	3140	
1653	0	1	18	3174	
1654	0	1	9	3184	
1655	0	1	1361	3184	
1656	0	1	2528	3172	
1657	0	1	3172	3140	
1658	0	1	3541	3107	
1659	0	1	3748	3088	
1660	0	1	3867	3093	
1661	0	1	3932	3115	
1662	0	1	3972	3142	
1663	0	1	3990	3165	
1664	0	1	3999	3183	
1665	0	1	3163	3184	
1666	0	1	1727	3171	
1667	0	1	949	3143	
1668	0	1	515	3113	
1669	0	1	279	3085	
1670	0	1	147	3094	
1671	0	1	76	3120	
1672	0	1	36	3146	
1673	0	1	18	3164	
1674	0	1	9	3183	
1675	0	1	1323	3184	
1676	0	1	2506	3178	
1677	0	1	3159	3142	
1678	0	1	3534	3105	
1679	0	1	3739	3088	
1680	0	1	3864	3092	
1681	0	1	3931	3111	
1682	0	1	3972	3139	
1683	0	1	3992	3168	
1684	0	1	3998	3182	
1685	0	1	3188	3185	
1686	0	1	1747	3172	
1687	0	1	952	3145	
1688	0	1	521	3114	
1689	0	1	281	3086	
1690	0	1	148	3088	
1691	0	1	75	3116	
1692	0	1	36	3146	
1693	0	1	18	3163	
1694	0	1	9	3176	
1695	0	1	1289	3190	
1696	0	1	2490	3180	
1697	0	1	3148	3142	
1698	0	1	3526	3105	
1699	0	1	3742	3088	
1700	0	1	3862	3091	
1701	0	1	3931	3112	
1702	0	1	3968	3143	
1703	0	1	3990	3166	
1704	0	1	3999	3183	
1705	0	1	3234	3190	
1706	0	1	1766	3173	
1707	0	1	969	3142	
1708	0	1	527	3106	
1709	0	1	285	3091	
1710	0	1	150	3099	
1711	0	1	77	3110	
1712	0	1	37	3140	
1713	0	1	18	3170	
1714	0	1	10	3191	
1715	0	1	1274	3184	
1716	0	1	2476	3169	
1717	0	1	3146	3144	
1718	0	1	3522	3109	
1719	0	1	3740	3089	
1720	0	1	3862	3094	
1721	0	1	3932	3115	
1722	0	1	3968	3140	
1723	0	1	3991	3164	
1724	0	1	3998	3183	
1725	0	1	3269	3185	
1726	0	1	1790	3173	
1727	0	1	976	3149	
1728	0	1	535	3106	
1729	0	1	288	3090	
1730	0	1	152	3093	
1731	0	1	78	3120	
1732	0	1	37	3136	
1733	0	1	18	3157	
1734	0	1	9	3189	
1735	0	1	1260	3188	
1736	0	1	2472	3173	
1737	0	1	3139	3141	
1738	0	1	3522	3109	
1739	0	1	3736	3089	
1740	0	1	3861	3092	
1741	0	1	3928	3114	
1742	0	1	3968	3142	
1743	0	1	3988	3165	
1744	0	1	3999	3183	
1745	0	1	3300	3187	
1746	0	1	1798	3181	
1747	0	1	985	3141	
1748	0	1	536	3107	
1749	0	1	290	3095	
1750	0	1	153	3091	
1751	0	1	78	3112	
1752	0	1	38	3140	
1753	0	1	18	3172	
1754	0	1	9	3181	
1755	0	1	1242	3186	
1756	0	1	2460	3173	
1757	0	1	3134	3149	
1758	0	1	3517	3109	
1759	0	1	3736	3090	
1760	0	1	3861	3091	
1761	0	1	3928	3114	
1762	0	1	3968	3140	
1763	0	1	3986	3163	
1764	0	1	3998	3183	
1765	0	1	3306	3184	
1766	0	1	1806	3178	
1767	0	1	988	3152	
1768	0	1	538	3109	
1769	0	1	291	3092	
1770	0	1	153	3089	
1771	0	1	79	3111	
1772	0	1	37	3145	
1773	0	1	18	3163	
1774	0	1	9	3182	
1775	0	1	1214	3186	
1776	0	1	2445	3176	
1777	0	1	3124	3147	
1778	0	1	3512	3111	
1779	0	1	3733	3090	
1780	0	1	3858	3093	
1781	0	1	3930	3111	
1782	0	1	3967	3136	
1783	0	1	3988	3165	
1784	0	1	3998	3185	
1785	0	1	3336	3188	
1786	0	1	1823	3182	
1787	0	1	996	3142	
1788	0	1	542	3104	
1789	0	1	293	3090	
1790	0	1	154	3096	
1791	0	1	79	3119	
1792	0	1	38	3136	
1793	0	1	19	3156	
1794	0	1	9	3186	
1795	0	1	1183	3194	
1796	0	1	2425	3181	
1797	0	1	3117	3146	
1798	0	1	3506	3110	
1799	0	1	3729	3089	
1800	0	1	3857	3092	
1801	0	1	3928	3112	
1802	0	1	3968	3138	
1803	0	1	3989	3163	
1804	0	1	3997	3183	
1805	0	1	3381	3184	
1806	0	1	1846	3174	
1807	0	1	1009	3149	
1808	0	1	549	3111	
1809	0	1	297	3091	
1810	0	1	156	3092	
1811	0	1	80	3115	
1812	0	1	39	3145	
1813	0	1	19	3160	
1814	0	1	9	3180	
1815	0	1	1159	3193	
1816	0	1	2412	3180	
1817	0	1	3109	3142	
1818	0	1	3503	3111	
1819	0	1	3727	3089	
1820	0	1	3855	3093	
1821	0	1	3927	3111	
1822	0	1	3968	3136	
1823	0	1	3988	3166	
1824	0	1	3998	3182	
1825	0	1	3338	3187	
1826	0	1	1816	3174	
1827	0	1	992	3152	
1828	0	1	541	3109	
1829	0	1	292	3089	
1830	0	1	154	3087	
1831	0	1	78	3112	
1832	0	1	38	3145	
1833	0	1	18	3170	
1834	0	1	9	3179	
1835	0	1	1180	3181	
1836	0	1	2421	3177	
1837	0	1	3116	3148	
1838	0	1	3506	3111	
1839	0	1	3731	3089	
1840	0	1	3855	3092	
1841	0	1	3928	3111	
1842	0	1	3968	3141	
1843	0	1	3989	3166	
1844	0	1	3997	3182	
1845	0	1	3326	3190	
1846	0	1	1816	3175	
1847	0	1	996	3142	
1848	0	1	540	3111	
1849	0	1	293	3096	
1850	0	1	154	3089	
1851	0	1	78	3110	
1852	0	1	38	3137	
1853	0	1	18	3171	
1854	0	1	9	3190	
1855	0	1	1151	3185	
1856	0	1	2406	3174	
1857	0	1	3107	3144	
1858	0	1	3502	3112	
1859	0	1	3724	3090	
1860	0	1	3855	3091	
1861	0	1	3928	3111	
1862	0	1	3967	3138	
1863	0	1	3988	3164	
1864	0	1	3998	3186	
1865	0	1	3325	3187	
1866	0	1	1811	3182	
1867	0	1	993	3152	
1868	0	1	543	3108	
1869	0	1	293	3088	
1870	0	1	154	3093	
1871	0	1	79	3118	
1872	0	1	38	3138	
1873	0	1	19	3161	
1874	0	1	10	3179	
1875	0	1	1159	3189	
1876	0	1	2405	3180	
1877	0	1	3109	3150	
1878	0	1	3503	3111	
1879	0	1	3729	3090	
1880	0	1	3855	3092	
1881	0	1	3927	3113	
1882	0	1	3968	3139	
1883	0	1	3990	3163	
1884	0	1	3998	3183	
1885	0	1	3336	3190	
1886	0	1	1823	3178	
1887	0	1	997	3139	
1888	0	1	545	3107	
1889	0	1	294	3097	
1890	0	1	155	3099	
1891	0	1	80	3114	
1892	0	1	39	3134	
1893	0	1	19	3160	
1894	0	1	10	3183	
1895	0	1	1130	3191	
1896	0	1	2394	3183	
1897	0	1	3101	3151	
1898	0	1	3501	3112	
1899	0	1	3726	3090	
1900	0	1	3853	3091	
1901	0	1	3928	3111	
1902	0	1	3968	3139	
1903	0	1	3988	3166	
1904	0	1	3992	3182	
1905	0	1	3403	3187	
1906	0	1	1859	3172	
1907	0	1	1017	3148	
1908	0	1	553	3118	
1909	0	1	300	3092	
1910	0	1	159	3092	
1911	0	1	82	3112	
1912	0	1	40	3144	
1913	0	1	20	3160	
1914	0	1	10	3182	
1915	0	1	1105	3183	
1916	0	1	2381	3180	
1917	0	1	3091	3148	
1918	0	1	3492	3109	
1919	0	1	3721	3090	
1920	0	1	3848	3091	
1921	0	1	3925	3111	
1922	0	1	3966	3138	
1923	0	1	3987	3162	
1924	0	1	3998	3183	
1925	0	1	3429	3184	
1926	0	1	1867	3176	
1927	0	1	1019	3154	
1928	0	1	555	3113	
1929	0	1	300	3088	
1930	0	1	158	3096	
1931	0	1	81	3103	
1932	0	1	40	3134	
1933	0	1	20	3172	
1934	0	1	10	3182	
1935	0	1	1112	3185	
1936	0	1	2384	3178	
1937	0	1	3097	3145	
1938	0	1	3495	3112	
1939	0	1	3726	3090	
1940	0	1	3852	3090	
1941	0	1	3929	3109	
1942	0	1	3968	3136	
1943	0	1	3982	3165	
1944	0	1	3999	3185	
1945	0	1	3360	3191	
1946	0	1	1838	3176	
1947	0	1	1005	3141	
1948	0	1	547	3112	
1949	0	1	297	3098	
1950	0	1	157	3091	
1951	0	1	81	3104	
1952	0	1	40	3142	
1953	0	1	20	3161	
1954	0	1	11	3183	
1955	0	1	1133	3187	
1956	0	1	2396	3180	
1957	0	1	3100	3151	
1958	0	1	3499	3112	
1959	0	1	3726	3089	
1960	0	1	3857	3093	
1961	0	1	3928	3111	
1962	0	1	3968	3136	
1963	0	1	3988	3164	
1964	0	1	4000	3186	
1965	0	1	3380	3191	
1966	0	1	1849	3182	
1967	0	1	1008	3144	
1968	0	1	552	3108	
1969	0	1	299	3084	
1970	0	1	158	3092	
1971	0	1	81	3111	
1972	0	1	41	3136	
1973	0	1	20	3161	
1974	0	1	11	3180	
1975	0	1	1110	3185	
1976	0	1	2388	3183	
1977	0	1	3098	3145	
1978	0	1	3497	3111	
1979	0	1	3725	3090	
1980	0	1	3849	3094	
1981	0	1	3928	3109	
1982	0	1	3968	3140	
1983	0	1	3992	3165	
1984	0	1	4000	3183	
1985	0	1	3303	3190	
1986	0	1	1806	3174	
1987	0	1	985	3145	
1988	0	1	538	3120	
1989	0	1	292	3087	
1990	0	1	155	3092	
1991	0	1	80	3112	
1992	0	1	41	3142	
1993	0	1	20	3172	
1994	0	1	11	3184	
1995	0	1	1123	3185	
1996	0	1	2392	3172	
1997	0	1	3096	3149	
1998	0	1	3496	3113	
1999	0	1	3724	3090	
2000	0	1	3855	3094	
2001	0	1	3928	3110	
2002	0	1	3963	3138	
2003	0	1	3990	3167	
2004	0	1	4000	3184	
2005	0	1	3349	3188	
2006	0	1	1827	3182	
2007	0	1	998	3150	
2008	0	1	544	3108	
2009	0	1	295	3088	
2010	0	1	156	3100	
2011	0	1	81	3109	
2012	0	1	40	3138	
2013	0	1	21	3164	
2014	0	1	12	3181	
2015	0	1	1157	3190	
2016	0	1	2413	3176	
2017	0	1	3110	3150	
2018	0	1	3505	3112	
2019	0	1	3729	3091	
2020	0	1	3859	3092	
2021	0	1	3929	3113	
2022	0	1	3971	3142	
2023	0	1	3992	3167	
2024	0	1	3999	3183	
2025	0	1	3288	3188	
2026	0	1	1797	3170	
2027	0	1	987	3147	
2028	0	1	537	3117	
2029	0	1	292	3097	
2030	0	1	155	3093	
2031	0	1	81	3114	
2032	0	1	40	3146	
2033	0	1	22	3172	
2034	0	1	12	3182	
2035	0	1	1106	3186	
2036	0	1	2381	3172	
2037	0	1	3094	3146	
2038	0	1	3495	3112	
2039	0	1	3723	3091	
2040	0	1	3856	3091	
2041	0	1	3930	3111	
2042	0	1	3970	3141	
2043	0	1	3990	3165	
2044	0	1	3999	3183	
2045	0	1	3305	3187	
2046	0	1	1807	3177	
2047	0	1	990	3144	
2048	0	1	540	3111	
2049	0	1	294	3096	
2050	0	1	157	3089	
2051	0	1	82	3112	
2052	0	1	42	3139	
2053	0	1	22	3173	
2054	0	1	13	3180	
2055	0	1	1088	3182	
2056	0	1	2374	3175	
2057	0	1	3091	3149	
2058	0	1	3495	3114	
2059	0	1	3724	3091	
2060	0	1	3854	3092	
2061	0	1	3928	3113	
2062	0	1	3970	3140	
2063	0	1	3989	3165	
2064	0	1	4000	3182	
2065	0	1	3367	3190	
2066	0	1	1839	3184	
2067	0	1	1007	3149	
2068	0	1	550	3119	
2069	0	1	299	3098	
2070	0	1	160	3089	
2071	0	1	83	3111	
2072	0	1	43	3138	
2073	0	1	23	3171	
2074	0	1	14	3181	
2075	0	1	1086	3187	
2076	0	1	2370	3175	
2077	0	1	3090	3152	
2078	0	1	3493	3114	
2079	0	1	3723	3091	
2080	0	1	3854	3093	
2081	0	1	3929	3112	
2082	0	1	3972	3136	
2083	0	1	3992	3164	
2084	0	1	3997	3184	
2085	0	1	3390	3188	
2086	0	1	1853	3186	
2087	0	1	1015	3146	
2088	0	1	557	3104	
2089	0	1	302	3092	
2090	0	1	162	3100	
2091	0	1	85	3109	
2092	0	1	44	3136	
2093	0	1	23	3171	
2094	0	1	15	3182	
2095	0	1	1045	3187	
2096	0	1	2348	3173	
2097	0	1	3074	3147	
2098	0	1	3486	3113	
2099	0	1	3722	3092	
2100	0	1	3854	3091	
2101	0	1	3927	3110	
2102	0	1	3968	3139	
2103	0	1	3992	3166	
2104	0	1	4003	3185	
2105	0	1	3429	3191	
2106	0	1	1873	3179	
2107	0	1	1026	3147	
2108	0	1	564	3111	
2109	0	1	306	3092	
2110	0	1	164	3095	
2111	0	1	87	3106	
2112	0	1	45	3131	
2113	0	1	24	3165	
2114	0	1	15	3187	
2115	0	1	1003	3193	
2116	0	1	2329	3183	
2117	0	1	3064	3153	
2118	0	1	3478	3114	
2119	0	1	3716	3090	
2120	0	1	3853	3091	
2121	0	1	3927	3111	
2122	0	1	3970	3139	
2123	0	1	3992	3165	
2124	0	1	4002	3184	
2125	0	1	3429	3191	
2126	0	1	1874	3182	
2127	0	1	1028	3146	
2128	0	1	562	3109	
2129	0	1	306	3088	
2130	0	1	165	3096	
2131	0	1	86	3117	
2132	0	1	46	3138	
2133	0	1	25	3163	
2134	0	1	15	3182	
2135	0	1	985	3194	
2136	0	1	2313	3185	
2137	0	1	3059	3149	
2138	0	1	3475	3112	
2139	0	1	3715	3091	
2140	0	1	3851	3093	
2141	0	1	3930	3108	
2142	0	1	3971	3134	
2143	0	1	3991	3163	
2144	0	1	4000	3184	
2145	0	1	3490	3190	
2146	0	1	1903	3177	
2147	0	1	1046	3145	
2148	0	1	576	3114	
2149	0	1	313	3098	
2150	0	1	168	3091	
2151	0	1	90	3106	
2152	0	1	47	3126	
2153	0	1	26	3161	
2154	0	1	16	3183	
2155	0	1	931	3194	
2156	0	1	2284	3183	
2157	0	1	3042	3148	
2158	0	1	3469	3113	
2159	0	1	3712	3091	
2160	0	1	3849	3093	
2161	0	1	3927	3109	
2162	0	1	3968	3135	
2163	0	1	3992	3165	
2164	0	1	4004	3182	
2165	0	1	3471	3190	
2166	0	1	1893	3177	
2167	0	1	1035	3147	
2168	0	1	567	3119	
2169	0	1	310	3095	
2170	0	1	167	3091	
2171	0	1	89	3106	
2172	0	1	47	3144	
2173	0	1	26	3162	
2174	0	1	16	3182	
2175	0	1	974	3191	
2176	0	1	2313	3183	
2177	0	1	3056	3148	
2178	0	1	3474	3111	
2179	0	1	3715	3091	
2180	0	1	3853	3092	
2181	0	1	3928	3108	
2182	0	1	3970	3134	
2183	0	1	3995	3163	
2184	0	1	4005	3183	
2185	0	1	3494	3186	
2186	0	1	1909	3178	
2187	0	1	1046	3156	
2188	0	1	573	3114	
2189	0	1	314	3092	
2190	0	1	169	3089	
2191	0	1	90	3111	
2192	0	1	49	3144	
2193	0	1	27	3161	
2194	0	1	18	3182	
2195	0	1	941	3193	
2196	0	1	2291	3181	
2197	0	1	3047	3148	
2198	0	1	3472	3111	
2199	0	1	3711	3091	
2200	0	1	3850	3092	
2201	0	1	3930	3108	
2202	0	1	3971	3134	
2203	0	1	3994	3161	
2204	0	1	4004	3183	
2205	0	1	3536	3185	
2206	0	1	1927	3176	
2207	0	1	1058	3154	
2208	0	1	583	3121	
2209	0	1	317	3092	
2210	0	1	172	3091	
2211	0	1	92	3111	
2212	0	1	49	3143	
2213	0	1	27	3163	
2214	0	1	18	3183	
2215	0	1	924	3187	
2216	0	1	2281	3183	
2217	0	1	3040	3150	
2218	0	1	3463	3111	
2219	0	1	3710	3092	
2220	0	1	3851	3092	
2221	0	1	3928	3110	
2222	0	1	3970	3134	
2223	0	1	3993	3163	
2224	0	1	4006	3186	
2225	0	1	3564	3188	
2226	0	1	1947	3185	
2227	0	1	1066	3149	
2228	0	1	584	3111	
2229	0	1	321	3095	
2230	0	1	173	3099	
2231	0	1	93	3104	
2232	0	1	51	3126	
2233	0	1	28	3161	
2234	0	1	18	3188	
2235	0	1	881	3186	
2236	0	1	2258	3179	
2237	0	1	3027	3148	
2238	0	1	3458	3114	
2239	0	1	3705	3092	
2240	0	1	3848	3090	
2241	0	1	3928	3110	
2242	0	1	3972	3136	
2243	0	1	3994	3160	
2244	0	1	4000	3182	
2245	0	1	3619	3186	
2246	0	1	1973	3185	
2247	0	1	1083	3153	
2248	0	1	594	3111	
2249	0	1	325	3087	
2250	0	1	177	3092	
2251	0	1	95	3108	
2252	0	1	52	3142	
2253	0	1	28	3168	
2254	0	1	19	3178	
2255	0	1	828	3187	
2256	0	1	2228	3177	
2257	0	1	3012	3151	
2258	0	1	3450	3116	
2259	0	1	3702	3092	
2260	0	1	3846	3090	
2261	0	1	3927	3109	
2262	0	1	3969	3137	
2263	0	1	3996	3163	
2264	0	1	4006	3181	
2265	0	1	3626	3186	
2266	0	1	1977	3183	
2267	0	1	1084	3150	
2268	0	1	596	3119	
2269	0	1	327	3099	
2270	0	1	177	3088	
2271	0	1	95	3106	
2272	0	1	52	3132	
2273	0	1	29	3162	
2274	0	1	20	3189	
2275	0	1	824	3188	
2276	0	1	2224	3177	
2277	0	1	3010	3147	
2278	0	1	3449	3115	
2279	0	1	3700	3092	
2280	0	1	3844	3090	
2281	0	1	3927	3109	
2282	0	1	3973	3136	
2283	0	1	3994	3164	
2284	0	1	4006	3184	
2285	0	1	3645	3189	
2286	0	1	1991	3180	
2287	0	1	1089	3148	
2288	0	1	601	3109	
2289	0	1	330	3094	
2290	0	1	179	3095	
2291	0	1	97	3116	
2292	0	1	53	3130	
2293	0	1	30	3161	
2294	0	1	20	3181	
2295	0	1	808	3187	
2296	0	1	2214	3184	
2297	0	1	3005	3156	
2298	0	1	3449	3115	
2299	0	1	3703	3091	
2300	0	1	3845	3092	
2301	0	1	3922	3107	
2302	0	1	3971	3133	
2303	0	1	3995	3161	
2304	0	1	4007	3184	
2305	0	1	3665	3188	
2306	0	1	1998	3186	
2307	0	1	1096	3148	
2308	0	1	605	3111	
2309	0	1	331	3096	
2310	0	1	180	3096	
2311	0	1	97	3104	
2312	0	1	54	3126	
2313	0	1	31	3160	
2314	0	1	21	3185	
2315	0	1	796	3195	
2316	0	1	2208	3181	
2317	0	1	3005	3151	
2318	0	1	3447	3114	
2319	0	1	3699	3092	
2320	0	1	3844	3092	
2321	0	1	3927	3107	
2322	0	1	3973	3134	
2323	0	1	3993	3160	
2324	0	1	4007	3184	
2325	0	1	3656	3187	
2326	0	1	1999	3187	
2327	0	1	1095	3149	
2328	0	1	602	3111	
2329	0	1	331	3093	
2330	0	1	180	3098	
2331	0	1	98	3113	
2332	0	1	54	3130	
2333	0	1	31	3151	
2334	0	1	21	3181	
2335	0	1	776	3189	
2336	0	1	2194	3185	
2337	0	1	2998	3154	
2338	0	1	3445	3116	
2339	0	1	3699	3091	
2340	0	1	3844	3092	
2341	0	1	3925	3109	
2342	0	1	3973	3131	
2343	0	1	3998	3159	
2344	0	1	4007	3181	
2345	0	1	3694	3186	
2346	0	1	2014	3178	
2347	0	1	1106	3157	
2348	0	1	611	3120	
2349	0	1	334	3090	
2350	0	1	183	3092	
2351	0	1	100	3115	
2352	0	1	55	3131	
2353	0	1	32	3156	
2354	0	1	22	3179	
2355	0	1	779	3180	
2356	0	1	2200	3176	
2357	0	1	3001	3151	
2358	0	1	3447	3118	
2359	0	1	3698	3093	
2360	0	1	3845	3091	
2361	0	1	3925	3109	
2362	0	1	3973	3132	
2363	0	1	3998	3159	
2364	0	1	4007	3181	
2365	0	1	3698	3187	
2366	0	1	2015	3186	
2367	0	1	1105	3150	
2368	0	1	610	3117	
2369	0	1	336	3092	
2370	0	1	183	3095	
2371	0	1	100	3113	
2372	0	1	56	3130	
2373	0	1	32	3160	
2374	0	1	22	3182	
2375	0	1	733	3194	
2376	0	1	2171	3184	
2377	0	1	2986	3152	
2378	0	1	3436	3117	
2379	0	1	3694	3092	
2380	0	1	3843	3091	
2381	0	1	3927	3104	
2382	0	1	3971	3131	
2383	0	1	3995	3160	
2384	0	1	4010	3183	
2385	0	1	3726	3188	
2386	0	1	2036	3178	
2387	0	1	1115	3149	
2388	0	1	613	3117	
2389	0	1	339	3098	
2390	0	1	185	3095	
2391	0	1	101	3102	
2392	0	1	57	3132	
2393	0	1	33	3159	
2394	0	1	23	3187	
2395	0	1	739	3194	
2396	0	1	2178	3179	
2397	0	1	2984	3150	
2398	0	1	3438	3116	
2399	0	1	3695	3093	
2400	0	1	3845	3089	
2401	0	1	3927	3108	
2402	0	1	3972	3135	
2403	0	1	3997	3161	
2404	0	1	4008	3181	
2405	0	1	3779	3188	
2406	0	1	2058	3180	
2407	0	1	1132	3152	
2408	0	1	626	3120	
2409	0	1	344	3097	
2410	0	1	188	3097	
2411	0	1	103	3103	
2412	0	1	57	3132	
2413	0	1	34	3158	
2414	0	1	24	3184	
2415	0	1	723	3196	
2416	0	1	2168	3179	
2417	0	1	2983	3151	
2418	0	1	3437	3118	
2419	0	1	3696	3093	
2420	0	1	3842	3089	
2421	0	1	3924	3106	
2422	0	1	3974	3135	
2423	0	1	3997	3160	
2424	0	1	4010	3180	
2425	0	1	3764	3188	
2426	0	1	2058	3188	
2427	0	1	1130	3154	
2428	0	1	621	3116	
2429	0	1	342	3092	
2430	0	1	188	3095	
2431	0	1	102	3112	
2432	0	1	58	3128	
2433	0	1	34	3152	
2434	0	1	23	3184	
2435	0	1	692	3196	
2436	0	1	2154	3181	
2437	0	1	2974	3154	
2438	0	1	3429	3116	
2439	0	1	3690	3094	
2440	0	1	3840	3089	
2441	0	1	3925	3105	
2442	0	1	3973	3133	
2443	0	1	3999	3159	
2444	0	1	4008	3179	
2445	0	1	3802	3188	
2446	0	1	2076	3178	
2447	0	1	1138	3157	
2448	0	1	630	3126	
2449	0	1	347	3093	
2450	0	1	190	3091	
2451	0	1	104	3113	
2452	0	1	58	3128	
2453	0	1	34	3157	
2454	0	1	24	3179	
2455	0	1	654	3189	
2456	0	1	2129	3188	
2457	0	1	2962	3156	
2458	0	1	3427	3119	
2459	0	1	3690	3093	
2460	0	1	3840	3090	
2461	0	1	3924	3103	
2462	0	1	3971	3130	
2463	0	1	3998	3160	
2464	0	1	4009	3182	
2465	0	1	3838	3188	
2466	0	1	2099	3179	
2467	0	1	1150	3151	
2468	0	1	636	3121	
2469	0	1	352	3100	
2470	0	1	192	3090	
2471	0	1	106	3104	
2472	0	1	59	3134	
2473	0	1	36	3157	
2474	0	1	25	3187	
2475	0	1	634	3185	
2476	0	1	2118	3180	
2477	0	1	2959	3158	
2478	0	1	3423	3117	
2479	0	1	3687	3093	
2480	0	1	3840	3090	
2481	0	1	3927	3104	
2482	0	1	3973	3129	
2483	0	1	3998	3161	
2484	0	1	4011	3179	
2485	0	1	3760	3188	
2486	0	1	2046	3175	
2487	0	1	1125	3153	
2488	0	1	622	3126	
2489	0	1	343	3090	
2490	0	1	188	3090	
2491	0	1	104	3106	
2492	0	1	59	3138	
2493	0	1	35	3159	
2494	0	1	25	3179	
2495	0	1	724	3187	
2496	0	1	2171	3188	
2497	0	1	2984	3153	
2498	0	1	3438	3117	
2499	0	1	3695	3093	
2500	0	1	3842	3088	
2501	0	1	3928	3104	
2502	0	1	3975	3133	
2503	0	1	3993	3160	
2504	0	1	4011	3180	
2505	0	1	3832	3187	
2506	0	1	2098	3178	
2507	0	1	1148	3156	
2508	0	1	633	3119	
2509	0	1	351	3085	
2510	0	1	193	3091	
2511	0	1	106	3104	
2512	0	1	60	3128	
2513	0	1	36	3165	
2514	0	1	25	3182	
2515	0	1	630	3184	
2516	0	1	2116	3181	
2517	0	1	2957	3151	
2518	0	1	3424	3118	
2519	0	1	3685	3093	
2520	0	1	3838	3088	
2521	0	1	3926	3104	
2522	0	1	3974	3131	
2523	0	1	3999	3161	
2524	0	1	4009	3180	
2525	0	1	3791	3187	
2526	0	1	2070	3176	
2527	0	1	1138	3156	
2528	0	1	629	3126	
2529	0	1	348	3095	
2530	0	1	191	3092	
2531	0	1	104	3112	
2532	0	1	60	3130	
2533	0	1	36	3156	
2534	0	1	25	3178	
2535	0	1	605	3192	
2536	0	1	2102	3188	
2537	0	1	2950	3157	
2538	0	1	3418	3120	
2539	0	1	3680	3093	
2540	0	1	3837	3091	
2541	0	1	3924	3106	
2542	0	1	3974	3129	
2543	0	1	3998	3157	
2544	0	1	4007	3182	
2545	0	1	3842	3189	
2546	0	1	2102	3185	
2547	0	1	1154	3163	
2548	0	1	637	3117	
2549	0	1	352	3094	
2550	0	1	194	3090	
2551	0	1	107	3111	
2552	0	1	60	3136	
2553	0	1	37	3156	
2554	0	1	27	3179	
2555	0	1	594	3190	
2556	0	1	2096	3189	
2557	0	1	2947	3156	
2558	0	1	3416	3118	
2559	0	1	3686	3094	
2560	0	1	3834	3088	
2561	0	1	3924	3104	
2562	0	1	3973	3132	
2563	0	1	3999	3159	
2564	0	1	4010	3179	
2565	0	1	3889	3188	
2566	0	1	2134	3178	
2567	0	1	1172	3161	
2568	0	1	647	3128	
2569	0	1	358	3092	
2570	0	1	198	3089	
2571	0	1	109	3096	
2572	0	1	61	3131	
2573	0	1	38	3163	
2574	0	1	27	3175	
2575	0	1	521	3187	
2576	0	1	2054	3183	
2577	0	1	2925	3160	
2578	0	1	3404	3122	
2579	0	1	3676	3094	
2580	0	1	3833	3090	
2581	0	1	3921	3103	
2582	0	1	3968	3131	
2583	0	1	3997	3158	
2584	0	1	4011	3178	
2585	0	1	3890	3188	
2586	0	1	2133	3177	
2587	0	1	1171	3159	
2588	0	1	646	3122	
2589	0	1	357	3091	
2590	0	1	196	3097	
2591	0	1	109	3099	
2592	0	1	62	3130	
2593	0	1	38	3163	
2594	0	1	27	3179	
2595	0	1	591	3194	
2596	0	1	2096	3189	
2597	0	1	2948	3158	
2598	0	1	3418	3120	
2599	0	1	3685	3093	
2600	0	1	3838	3090	
2601	0	1	3925	3103	
2602	0	1	3974	3130	
2603	0	1	3999	3160	
2604	0	1	4012	3180	
2605	0	1	3880	3187	
2606	0	1	2123	3178	
2607	0	1	1169	3158	
2608	0	1	647	3128	
2609	0	1	359	3095	
2610	0	1	198	3086	
2611	0	1	110	3096	
2612	0	1	62	3130	
2613	0	1	38	3163	
2614	0	1	27	3173	
2615	0	1	530	3194	
2616	0	1	2065	3188	
2617	0	1	2928	3156	
2618	0	1	3405	3118	
2619	0	1	3679	3094	
2620	0	1	3836	3090	
2621	0	1	3923	3103	
2622	0	1	3974	3128	
2623	0	1	4000	3157	
2624	0	1	4012	3181	
2625	0	1	3902	3189	
2626	0	1	2143	3189	
2627	0	1	1179	3156	
2628	0	1	649	3119	
2629	0	1	360	3094	
2630	0	1	200	3088	
2631	0	1	110	3106	
2632	0	1	64	3136	
2633	0	1	39	3156	
2634	0	1	28	3175	
2635	0	1	538	3181	
2636	0	1	2066	3180	
2637	0	1	2929	3160	
2638	0	1	3408	3124	
2639	0	1	3682	3094	
2640	0	1	3831	3089	
2641	0	1	3926	3104	
2642	0	1	3975	3132	
2643	0	1	3999	3158	
2644	0	1	4013	3178	
2645	0	1	3926	3187	
2646	0	1	2161	3179	
2647	0	1	1183	3158	
2648	0	1	657	3128	
2649	0	1	365	3095	
2650	0	1	201	3088	
2651	0	1	112	3102	
2652	0	1	64	3132	
2653	0	1	39	3164	
2654	0	1	28	3181	
2655	0	1	515	3184	
2656	0	1	2053	3182	
2657	0	1	2924	3155	
2658	0	1	3406	3122	
2659	0	1	3679	3095	
2660	0	1	3829	3088	
2661	0	1	3924	3104	
2662	0	1	3976	3132	
2663	0	1	3999	3158	
2664	0	1	4005	3178	
2665	0	1	3934	3187	
2666	0	1	2169	3182	
2667	0	1	1190	3159	
2668	0	1	657	3119	
2669	0	1	365	3098	
2670	0	1	202	3097	
2671	0	1	113	3108	
2672	0	1	64	3126	
2673	0	1	40	3148	
2674	0	1	29	3177	
2675	0	1	459	3190	
2676	0	1	2025	3185	
2677	0	1	2906	3158	
2678	0	1	3395	3119	
2679	0	1	3673	3095	
2680	0	1	3832	3087	
2681	0	1	3924	3102	
2682	0	1	3971	3129	
2683	0	1	4000	3159	
2684	0	1	4011	3178	
2685	0	1	3973	3188	
2686	0	1	2198	3180	
2687	0	1	1205	3163	
2688	0	1	670	3128	
2689	0	1	370	3092	
2690	0	1	205	3086	
2691	0	1	115	3105	
2692	0	1	65	3136	
2693	0	1	41	3160	
2694	0	1	29	3175	
2695	0	1	409	3182	
2696	0	1	1994	3183	
2697	0	1	2894	3165	
2698	0	1	3387	3123	
2699	0	1	3668	3094	
2700	0	1	3830	3090	
2701	0	1	3921	3105	
2702	0	1	3972	3130	
2703	0	1	4000	3155	
2704	0	1	4013	3177	
2705	0	1	3977	3188	
2706	0	1	2200	3189	
2707	0	1	1207	3157	
2708	0	1	665	3122	
2709	0	1	369	3096	
2710	0	1	205	3095	
2711	0	1	115	3096	
2712	0	1	66	3125	
2713	0	1	41	3160	
2714	0	1	29	3171	
2715	0	1	433	3186	
2716	0	1	2013	3189	
2717	0	1	2904	3157	
2718	0	1	3393	3121	
2719	0	1	3674	3095	
2720	0	1	3833	3089	
2721	0	1	3924	3105	
2722	0	1	3975	3128	
2723	0	1	4002	3155	
2724	0	1	4013	3181	
2725	0	1	3926	3188	
2726	0	1	2154	3190	
2727	0	1	1182	3159	
2728	0	1	653	3117	
2729	0	1	362	3092	
2730	0	1	202	3095	
2731	0	1	113	3110	
2732	0	1	65	3131	
2733	0	1	41	3156	
2734	0	1	29	3183	
2735	0	1	502	3187	
2736	0	1	2050	3180	
2737	0	1	2924	3156	
2738	0	1	3406	3123	
2739	0	1	3680	3095	
2740	0	1	3839	3089	
2741	0	1	3928	3102	
2742	0	1	3976	3129	
2743	0	1	4002	3158	
2744	0	1	4014	3177	
2745	0	1	3890	3188	
2746	0	1	2127	3178	
2747	0	1	1170	3164	
2748	0	1	647	3122	
2749	0	1	359	3088	
2750	0	1	200	3087	
2751	0	1	112	3111	
2752	0	1	65	3131	
2753	0	1	41	3164	
2754	0	1	31	3182	
2755	0	1	538	3186	
2756	0	1	2071	3178	
2757	0	1	2930	3161	
2758	0	1	3408	3120	
2759	0	1	3682	3094	
2760	0	1	3838	3090	
2761	0	1	3926	3103	
2762	0	1	3977	3130	
2763	0	1	3994	3159	
2764	0	1	4016	3178	
2765	0	1	3916	3187	
2766	0	1	2152	3178	
2767	0	1	1184	3160	
2768	0	1	656	3129	
2769	0	1	364	3092	
2770	0	1	203	3081	
2771	0	1	114	3103	
2772	0	1	67	3136	
2773	0	1	42	3152	
2774	0	1	31	3178	
2775	0	1	494	3191	
2776	0	1	2044	3189	
2777	0	1	2920	3157	
2778	0	1	3402	3120	
2779	0	1	3679	3095	
2780	0	1	3838	3087	
2781	0	1	3924	3104	
2782	0	1	3976	3131	
2783	0	1	4000	3157	
2784	0	1	4014	3181	
2785	0	1	3913	3186	
2786	0	1	2147	3190	
2787	0	1	1179	3158	
2788	0	1	651	3114	
2789	0	1	362	3092	
2790	0	1	202	3096	
2791	0	1	114	3101	
2792	0	1	67	3126	
2793	0	1	42	3163	
2794	0	1	32	3177	
2795	0	1	511	3184	
2796	0	1	2054	3187	
2797	0	1	2926	3154	
2798	0	1	3408	3121	
2799	0	1	3683	3094	
2800	0	1	3837	3090	
2801	0	1	3927	3102	
2802	0	1	3975	3127	
2803	0	1	4002	3159	
2804	0	1	4016	3178	
2805	0	1	3869	3187	
2806	0	1	2118	3182	
2807	0	1	1162	3156	
2808	0	1	645	3122	
2809	0	1	359	3100	
2810	0	1	199	3087	
2811	0	1	112	3100	
2812	0	1	66	3136	
2813	0	1	42	3159	
2814	0	1	31	3178	
2815	0	1	566	3185	
2816	0	1	2087	3176	
2817	0	1	2943	3157	
2818	0	1	3414	3122	
2819	0	1	3686	3093	
2820	0	1	3841	3088	
2821	0	1	3928	3105	
2822	0	1	3978	3130	
2823	0	1	4005	3156	
2824	0	1	4017	3182	
2825	0	1	3834	3187	
2826	0	1	2095	3188	
2827	0	1	1153	3150	
2828	0	1	636	3122	
2829	0	1	355	3095	
2830	0	1	198	3090	
2831	0	1	111	3100	
2832	0	1	66	3131	
2833	0	1	42	3159	
2834	0	1	32	3184	
2835	0	1	586	3195	
2836	0	1	2096	3188	
2837	0	1	2946	3154	
2838	0	1	3418	3117	
2839	0	1	3688	3093	
2840	0	1	3842	3090	
2841	0	1	3928	3102	
2842	0	1	3979	3130	
2843	0	1	4004	3159	
2844	0	1	4016	3181	
2845	0	1	3846	3187	
2846	0	1	2103	3183	
2847	0	1	1156	3161	
2848	0	1	641	3125	
2849	0	1	357	3090	
2850	0	1	199	3089	
2851	0	1	113	3110	
2852	0	1	67	3135	
2853	0	1	42	3154	
2854	0	1	31	3179	
2855	0	1	623	3187	
2856	0	1	2118	3182	
2857	0	1	2963	3160	
2858	0	1	3430	3121	
2859	0	1	3694	3093	
2860	0	1	3846	3088	
2861	0	1	3933	3104	
2862	0	1	3979	3131	
2863	0	1	4003	3161	
2864	0	1	4016	3182	
2865	0	1	3773	3188	
2866	0	1	2061	3184	
2867	0	1	1132	3152	
2868	0	1	628	3118	
2869	0	1	350	3087	
2870	0	1	195	3088	
2871	0	1	110	3109	
2872	0	1	65	3136	
2873	0	1	42	3154	
2874	0	1	32	3187	
2875	0	1	680	3189	
2876	0	1	2152	3179	
2877	0	1	2979	3159	
2878	0	1	3440	3116	
2879	0	1	3701	3092	
2880	0	1	3849	3091	
2881	0	1	3928	3104	
2882	0	1	3980	3130	
2883	0	1	4005	3160	
2884	0	1	4018	3181	
2885	0	1	3708	3188	
2886	0	1	2024	3186	
2887	0	1	1114	3149	
2888	0	1	618	3120	
2889	0	1	344	3095	
2890	0	1	192	3083	
2891	0	1	108	3104	
2892	0	1	64	3139	
2893	0	1	42	3160	
2894	0	1	32	3178	
2895	0	1	731	3193	
2896	0	1	2176	3180	
2897	0	1	2993	3153	
2898	0	1	3448	3119	
2899	0	1	3706	3092	
2900	0	1	3853	3090	
2901	0	1	3936	3104	
2902	0	1	3983	3135	
2903	0	1	4008	3160	
2904	0	1	4018	3180	
2905	0	1	3645	3187	
2906	0	1	1992	3181	
2907	0	1	1096	3159	
2908	0	1	607	3117	
2909	0	1	339	3100	
2910	0	1	189	3086	
2911	0	1	108	3107	
2912	0	1	64	3135	
2913	0	1	42	3167	
2914	0	1	32	3180	
2915	0	1	771	3188	
2916	0	1	2199	3180	
2917	0	1	3002	3158	
2918	0	1	3453	3118	
2919	0	1	3702	3093	
2920	0	1	3854	3090	
2921	0	1	3938	3107	
2922	0	1	3978	3131	
2923	0	1	4008	3158	
2924	0	1	4018	3180	
2925	0	1	3695	3186	
2926	0	1	2025	3183	
2927	0	1	1113	3161	
2928	0	1	616	3122	
2929	0	1	345	3091	
2930	0	1	193	3089	
2931	0	1	109	3108	
2932	0	1	66	3139	
2933	0	1	43	3166	
2934	0	1	32	3181	
2935	0	1	727	3184	
2936	0	1	2171	3175	
2937	0	1	2989	3154	
2938	0	1	3445	3120	
2939	0	1	3705	3093	
2940	0	1	3852	3088	
2941	0	1	3936	3104	
2942	0	1	3980	3132	
2943	0	1	4006	3162	
2944	0	1	4018	3181	
2945	0	1	3747	3188	
2946	0	1	2047	3179	
2947	0	1	1126	3148	
2948	0	1	627	3121	
2949	0	1	350	3094	
2950	0	1	195	3090	
2951	0	1	110	3108	
2952	0	1	66	3138	
2953	0	1	43	3165	
2954	0	1	32	3176	
2955	0	1	662	3185	
2956	0	1	2139	3187	
2957	0	1	2970	3154	
2958	0	1	3436	3117	
2959	0	1	3701	3093	
2960	0	1	3849	3092	
2961	0	1	3933	3105	
2962	0	1	3980	3132	
2963	0	1	4005	3162	
2964	0	1	4017	3181	
2965	0	1	3730	3188	
2966	0	1	2035	3184	
2967	0	1	1121	3148	
2968	0	1	620	3115	
2969	0	1	347	3100	
2970	0	1	193	3090	
2971	0	1	110	3104	
2972	0	1	66	3138	
2973	0	1	43	3158	
2974	0	1	32	3176	
2975	0	1	706	3194	
2976	0	1	2164	3176	
2977	0	1	2986	3158	
2978	0	1	3442	3115	
2979	0	1	3705	3092	
2980	0	1	3854	3089	
2981	0	1	3935	3109	
2982	0	1	3983	3131	
2983	0	1	4006	3162	
2984	0	1	4018	3182	
2985	0	1	3660	3187	
2986	0	1	1998	3186	
2987	0	1	1100	3153	
2988	0	1	609	3117	
2989	0	1	341	3089	
2990	0	1	191	3098	
2991	0	1	109	3101	
2992	0	1	65	3132	
2993	0	1	42	3163	
2994	0	1	32	3178	
2995	0	1	786	3189	
2996	0	1	2210	3178	
2997	0	1	3012	3156	
2998	0	1	3457	3114	
2999	0	1	3711	3091	
3000	0	1	3851	3092	
3001	0	1	3938	3107	
3002	0	1	3985	3132	
3003	0	1	4007	3160	
3004	0	1	4018	3180	
3005	0	1	3591	3187	
3006	0	1	1962	3177	
3007	0	1	1081	3159	
3008	0	1	598	3115	
3009	0	1	334	3089	
3010	0	1	187	3097	
3011	0	1	107	3112	
3012	0	1	64	3134	
3013	0	1	43	3160	
3014	0	1	33	3185	
3015	0	1	795	3180	
3016	0	1	2213	3179	
3017	0	1	3014	3156	
3018	0	1	3461	3113	
3019	0	1	3712	3092	
3020	0	1	3857	3090	
3021	0	1	3938	3110	
3022	0	1	3983	3134	
3023	0	1	4004	3161	
3024	0	1	4018	3183	
3025	0	1	3542	3190	
3026	0	1	1940	3175	
3027	0	1	1069	3149	
3028	0	1	593	3118	
3029	0	1	331	3093	
3030	0	1	185	3092	
3031	0	1	106	3111	
3032	0	1	64	3134	
3033	0	1	43	3165	
3034	0	1	33	3186	
3035	0	1	882	3188	
3036	0	1	2264	3183	
3037	0	1	3037	3150	
3038	0	1	3474	3114	
3039	0	1	3722	3092	
3040	0	1	3863	3093	
3041	0	1	3943	3108	
3042	0	1	3985	3133	
3043	0	1	4008	3164	
3044	0	1	4019	3182	
3045	0	1	3497	3190	
3046	0	1	1913	3180	
3047	0	1	1056	3148	
3048	0	1	586	3122	
3049	0	1	327	3098	
3050	0	1	183	3094	
3051	0	1	105	3110	
3052	0	1	63	3142	
3053	0	1	42	3164	
3054	0	1	33	3180	
3055	0	1	859	3181	
3056	0	1	2244	3177	
3057	0	1	3031	3153	
3058	0	1	3469	3115	
3059	0	1	3717	3092	
3060	0	1	3861	3093	
3061	0	1	3940	3106	
3062	0	1	3984	3134	
3063	0	1	4007	3162	
3064	0	1	4019	3184	
3065	0	1	3518	3187	
3066	0	1	1930	3185	
3067	0	1	1067	3152	
3068	0	1	591	3114	
3069	0	1	330	3090	
3070	0	1	186	3094	
3071	0	1	106	3115	
3072	0	1	65	3132	
3073	0	1	42	3162	
3074	0	1	33	3181	
3075	0	1	802	3192	
3076	0	1	2218	3186	
3077	0	1	3012	3152	
3078	0	1	3457	3114	
3079	0	1	3712	3092	
3080	0	1	3859	3093	
3081	0	1	3939	3108	
3082	0	1	3985	3133	
3083	0	1	4000	3164	
3084	0	1	4020	3183	
3085	0	1	3588	3189	
3086	0	1	1961	3179	
3087	0	1	1082	3150	
3088	0	1	600	3122	
3089	0	1	335	3093	
3090	0	1	188	3088	
3091	0	1	107	3115	
3092	0	1	65	3136	
3093	0	1	43	3161	
3094	0	1	33	3190	
3095	0	1	843	3182	
3096	0	1	2245	3176	
3097	0	1	3028	3149	
3098	0	1	3466	3114	
3099	0	1	3718	3092	
3100	0	1	3862	3091	
3101	0	1	3940	3109	
3102	0	1	3984	3136	
3103	0	1	4010	3165	
3104	0	1	4020	3182	
3105	0	1	3571	3188	
3106	0	1	1958	3178	
3107	0	1	1078	3157	
3108	0	1	599	3120	
3109	0	1	336	3089	
3110	0	1	188	3092	
3111	0	1	108	3108	
3112	0	1	66	3139	
3113	0	1	43	3159	
3114	0	1	34	3183	
3115	0	1	776	3188	
3116	0	1	2203	3184	
3117	0	1	3007	3150	
3118	0	1	3454	3114	
3119	0	1	3709	3091	
3120	0	1	3856	3093	
3121	0	1	3936	3110	
3122	0	1	3986	3136	
3123	0	1	4007	3160	
3124	0	1	4019	3182	
3125	0	1	3651	3187	
3126	0	1	1998	3185	
3127	0	1	1102	3154	
3128	0	1	615	3115	
3129	0	1	344	3093	
3130	0	1	193	3099	
3131	0	1	111	3104	
3132	0	1	67	3130	
3133	0	1	44	3165	
3134	0	1	34	3190	
3135	0	1	712	3187	
3136	0	1	2168	3177	
3137	0	1	2986	3148	
3138	0	1	3442	3116	
3139	0	1	3703	3093	
3140	0	1	3852	3090	
3141	0	1	3939	3109	
3142	0	1	3983	3137	
3143	0	1	4008	3162	
3144	0	1	4020	3180	
3145	0	1	3664	3188	
3146	0	1	2009	3176	
3147	0	1	1106	3151	
3148	0	1	614	3119	
3149	0	1	344	3099	
3150	0	1	194	3090	
3151	0	1	111	3106	
3152	0	1	68	3129	
3153	0	1	44	3163	
3154	0	1	34	3185	
3155	0	1	715	3195	
3156	0	1	2172	3178	
3157	0	1	2989	3152	
3158	0	1	3444	3114	
3159	0	1	3703	3093	
3160	0	1	3853	3089	
3161	0	1	3936	3108	
3162	0	1	3984	3135	
3163	0	1	4010	3163	
3164	0	1	4019	3181	
3165	0	1	3714	3188	
3166	0	1	2032	3177	
3167	0	1	1121	3152	
3168	0	1	624	3122	
3169	0	1	350	3100	
3170	0	1	196	3087	
3171	0	1	113	3103	
3172	0	1	69	3139	
3173	0	1	45	3166	
3174	0	1	35	3186	
3175	0	1	652	3193	
3176	0	1	2135	3179	
3177	0	1	2974	3157	
3178	0	1	3438	3114	
3179	0	1	3702	3092	
3180	0	1	3850	3091	
3181	0	1	3935	3107	
3182	0	1	3983	3133	
3183	0	1	4010	3164	
3184	0	1	4021	3183	
3185	0	1	3671	3188	
3186	0	1	2011	3186	
3187	0	1	1105	3150	
3188	0	1	614	3116	
3189	0	1	345	3090	
3190	0	1	194	3096	
3191	0	1	111	3107	
3192	0	1	67	3134	
3193	0	1	45	3161	
3194	0	1	36	3188	
3195	0	1	737	3183	
3196	0	1	2183	3178	
3197	0	1	2996	3154	
3198	0	1	3451	3114	
3199	0	1	3711	3092	
3200	0	1	3856	3092	
3201	0	1	3938	3110	
3202	0	1	3984	3133	
3203	0	1	4010	3163	
3204	0	1	4023	3183	
3205	0	1	3594	3189	
3206	0	1	1969	3176	
3207	0	1	1086	3156	
3208	0	1	601	3116	
3209	0	1	337	3089	
3210	0	1	190	3086	
3211	0	1	110	3110	
3212	0	1	67	3131	
3213	0	1	45	3157	
3214	0	1	35	3181	
3215	0	1	794	3192	
3216	0	1	2221	3177	
3217	0	1	3016	3155	
3218	0	1	3460	3113	
3219	0	1	3715	3091	
3220	0	1	3861	3090	
3221	0	1	3940	3107	
3222	0	1	3987	3135	
3223	0	1	4009	3165	
3224	0	1	4022	3181	
3225	0	1	3574	3188	
3226	0	1	1958	3175	
3227	0	1	1085	3151	
3228	0	1	604	3122	
3229	0	1	337	3090	
3230	0	1	190	3091	
3231	0	1	110	3108	
3232	0	1	68	3140	
3233	0	1	45	3167	
3234	0	1	35	3178	
3235	0	1	766	3187	
3236	0	1	2196	3179	
3237	0	1	3005	3150	
3238	0	1	3454	3112	
3239	0	1	3713	3092	
3240	0	1	3858	3090	
3241	0	1	3938	3106	
3242	0	1	3985	3134	
3243	0	1	4011	3163	
3244	0	1	4023	3181	
3245	0	1	3582	3187	
3246	0	1	1962	3179	
3247	0	1	1085	3158	
3248	0	1	606	3113	
3249	0	1	340	3083	
3250	0	1	191	3091	
3251	0	1	111	3115	
3252	0	1	68	3134	
3253	0	1	45	3157	
3254	0	1	35	3175	
3255	0	1	782	3188	
3256	0	1	2210	3181	
3257	0	1	3010	3155	
3258	0	1	3454	3117	
3259	0	1	3711	3092	
3260	0	1	3859	3090	
3261	0	1	3942	3109	
3262	0	1	3987	3136	
3263	0	1	4007	3163	
3264	0	1	4022	3179	
3265	0	1	3651	3187	
3266	0	1	2001	3176	
3267	0	1	1103	3157	
3268	0	1	613	3118	
3269	0	1	345	3096	
3270	0	1	194	3091	
3271	0	1	112	3110	
3272	0	1	68	3135	
3273	0	1	46	3161	
3274	0	1	36	3179	
3275	0	1	764	3193	
3276	0	1	2204	3173	
3277	0	1	3008	3152	
3278	0	1	3451	3117	
3279	0	1	3712	3091	
3280	0	1	3859	3091	
3281	0	1	3942	3106	
3282	0	1	3985	3136	
3283	0	1	4010	3162	
3284	0	1	4023	3181	
3285	0	1	3582	3188	
3286	0	1	1959	3176	
3287	0	1	1081	3155	
3288	0	1	600	3114	
3289	0	1	338	3090	
3290	0	1	190	3098	
3291	0	1	110	3109	
3292	0	1	68	3138	
3293	0	1	46	3166	
3294	0	1	36	3181	
3295	0	1	809	3185	
3296	0	1	2225	3184	
3297	0	1	3021	3149	
3298	0	1	3463	3113	
3299	0	1	3715	3091	
3300	0	1	3861	3092	
3301	0	1	3944	3108	
3302	0	1	3987	3135	
3303	0	1	4012	3163	
3304	0	1	4021	3181	
3305	0	1	3549	3190	
3306	0	1	1945	3181	
3307	0	1	1071	3148	
3308	0	1	598	3113	
3309	0	1	334	3089	
3310	0	1	189	3099	
3311	0	1	109	3110	
3312	0	1	67	3132	
3313	0	1	45	3169	
3314	0	1	36	3180	
3315	0	1	882	3185	
3316	0	1	2265	3184	
3317	0	1	3037	3146	
3318	0	1	3477	3113	
3319	0	1	3726	3091	
3320	0	1	3864	3093	
3321	0	1	3943	3109	
3322	0	1	3988	3136	
3323	0	1	4013	3164	
3324	0	1	4024	3181	
3325	0	1	3459	3188	
3326	0	1	1896	3173	
3327	0	1	1047	3152	
3328	0	1	581	3113	
3329	0	1	328	3088	
3330	0	1	184	3099	
3331	0	1	107	3112	
3332	0	1	66	3141	
3333	0	1	45	3168	
3334	0	1	36	3179	
3335	0	1	899	3186	
3336	0	1	2273	3176	
3337	0	1	3047	3149	
3338	0	1	3480	3114	
3339	0	1	3725	3090	
3340	0	1	3859	3091	
3341	0	1	3944	3111	
3342	0	1	3990	3139	
3343	0	1	4013	3162	
3344	0	1	4022	3181	
3345	0	1	3477	3187	
3346	0	1	1911	3178	
3347	0	1	1058	3150	
3348	0	1	589	3121	
3349	0	1	331	3098	
3350	0	1	187	3089	
3351	0	1	108	3108	
3352	0	1	66	3144	
3353	0	1	46	3159	
3354	0	1	36	3182	
3355	0	1	899	3189	
3356	0	1	2271	3182	
3357	0	1	3045	3155	
3358	0	1	3478	3114	
3359	0	1	3724	3091	
3360	0	1	3867	3093	
3361	0	1	3946	3111	
3362	0	1	3990	3137	
3363	0	1	4011	3160	
3364	0	1	4021	3184	
3365	0	1	3489	3187	
3366	0	1	1911	3186	
3367	0	1	1054	3148	
3368	0	1	586	3111	
3369	0	1	330	3099	
3370	0	1	186	3092	
3371	0	1	108	3107	
3372	0	1	66	3142	
3373	0	1	45	3161	
3374	0	1	35	3178	
3375	0	1	893	3194	
3376	0	1	2277	3175	
3377	0	1	3047	3148	
3378	0	1	3478	3113	
3379	0	1	3724	3091	
3380	0	1	3866	3090	
3381	0	1	3945	3112	
3382	0	1	3989	3136	
3383	0	1	4013	3162	
3384	0	1	4022	3185	
3385	0	1	3414	3187	
3386	0	1	1877	3183	
3387	0	1	1034	3146	
3388	0	1	574	3109	
3389	0	1	322	3098	
3390	0	1	182	3087	
3391	0	1	106	3110	
3392	0	1	65	3139	
3393	0	1	44	3168	
3394	0	1	36	3178	
3395	0	1	958	3187	
3396	0	1	2311	3178	
3397	0	1	3067	3144	
3398	0	1	3490	3113	
3399	0	1	3731	3091	
3400	0	1	3870	3092	
3401	0	1	3948	3109	
3402	0	1	3991	3138	
3403	0	1	4008	3166	
3404	0	1	4024	3183	
3405	0	1	3379	3190	
3406	0	1	1853	3179	
3407	0	1	1024	3144	
3408	0	1	569	3111	
3409	0	1	320	3094	
3410	0	1	181	3091	
3411	0	1	105	3114	
3412	0	1	65	3141	
3413	0	1	45	3162	
3414	0	1	36	3188	
3415	0	1	999	3181	
3416	0	1	2332	3177	
3417	0	1	3079	3148	
3418	0	1	3499	3112	
3419	0	1	3735	3091	
3420	0	1	3872	3093	
3421	0	1	3948	3109	
3422	0	1	3991	3141	
3423	0	1	4013	3164	
3424	0	1	4023	3181	
3425	0	1	3296	3187	
3426	0	1	1810	3176	
3427	0	1	1001	3154	
3428	0	1	559	3111	
3429	0	1	313	3088	
3430	0	1	177	3098	
3431	0	1	103	3111	
3432	0	1	64	3141	
3433	0	1	44	3168	
3434	0	1	35	3182	
3435	0	1	1042	3193	
3436	0	1	2361	3175	
3437	0	1	3094	3145	
3438	0	1	3507	3111	
3439	0	1	3740	3091	
3440	0	1	3875	3091	
3441	0	1	3951	3113	
3442	0	1	3994	3138	
3443	0	1	4015	3163	
3444	0	1	4023	3186	
3445	0	1	3231	3187	
3446	0	1	1778	3182	
3447	0	1	984	3138	
3448	0	1	548	3109	
3449	0	1	307	3097	
3450	0	1	174	3093	
3451	0	1	101	3108	
3452	0	1	63	3146	
3453	0	1	44	3164	
3454	0	1	36	3180	
3455	0	1	1130	3194	
3456	0	1	2407	3172	
3457	0	1	3118	3148	
3458	0	1	3520	3110	
3459	0	1	3750	3090	
3460	0	1	3882	3091	
3461	0	1	3953	3115	
3462	0	1	3993	3139	
3463	0	1	4014	3165	
3464	0	1	4023	3187	
3465	0	1	3176	3186	
3466	0	1	1744	3183	
3467	0	1	965	3148	
3468	0	1	538	3110	
3469	0	1	303	3087	
3470	0	1	171	3100	
3471	0	1	101	3120	
3472	0	1	62	3139	
3473	0	1	43	3165	
3474	0	1	36	3184	
3475	0	1	1150	3192	
3476	0	1	2419	3182	
3477	0	1	3125	3148	
3478	0	1	3522	3110	
3479	0	1	3746	3089	
3480	0	1	3879	3092	
3481	0	1	3951	3112	
3482	0	1	3995	3142	
3483	0	1	4014	3165	
3484	0	1	4024	3185	
3485	0	1	3188	3184	
3486	0	1	1754	3179	
3487	0	1	973	3147	
3488	0	1	545	3117	
3489	0	1	304	3097	
3490	0	1	173	3094	
3491	0	1	101	3110	
3492	0	1	63	3138	
3493	0	1	44	3165	
3494	0	1	36	3190	
3495	0	1	1115	3184	
3496	0	1	2398	3172	
3497	0	1	3110	3144	
3498	0	1	3516	3109	
3499	0	1	3746	3090	
3500	0	1	3879	3092	
3501	0	1	3954	3112	
3502	0	1	3993	3140	
3503	0	1	4008	3168	
3504	0	1	4024	3184	
3505	0	1	3191	3188	
3506	0	1	1758	3172	
3507	0	1	974	3147	
3508	0	1	545	3117	
3509	0	1	306	3093	
3510	0	1	174	3088	
3511	0	1	102	3104	
3512	0	1	63	3141	
3513	0	1	44	3170	
3514	0	1	36	3180	
3515	0	1	1108	3185	
3516	0	1	2393	3173	
3517	0	1	3108	3144	
3518	0	1	3514	3111	
3519	0	1	3746	3090	
3520	0	1	3878	3090	
3521	0	1	3953	3111	
3522	0	1	3994	3141	
3523	0	1	4014	3166	
3524	0	1	4023	3182	
3525	0	1	3225	3187	
3526	0	1	1776	3174	
3527	0	1	985	3150	
3528	0	1	550	3119	
3529	0	1	309	3088	
3530	0	1	175	3092	
3531	0	1	102	3116	
3532	0	1	64	3143	
3533	0	1	44	3161	
3534	0	1	36	3184	
3535	0	1	1072	3188	
3536	0	1	2374	3181	
3537	0	1	3100	3150	
3538	0	1	3511	3111	
3539	0	1	3742	3090	
3540	0	1	3874	3092	
3541	0	1	3951	3111	
3542	0	1	3993	3140	
3543	0	1	4014	3165	
3544	0	1	4023	3182	
3545	0	1	3270	3188	
3546	0	1	1798	3175	
3547	0	1	996	3147	
3548	0	1	554	3105	
3549	0	1	313	3092	
3550	0	1	178	3093	
3551	0	1	103	3114	
3552	0	1	65	3142	
3553	0	1	45	3171	
3554	0	1	36	3190	
3555	0	1	1038	3194	
3556	0	1	2355	3180	
3557	0	1	3088	3146	
3558	0	1	3502	3110	
3559	0	1	3733	3091	
3560	0	1	3874	3094	
3561	0	1	3952	3113	
3562	0	1	3992	3138	
3563	0	1	4013	3163	
3564	0	1	4024	3182	
3565	0	1	3279	3187	
3566	0	1	1807	3177	
3567	0	1	999	3143	
3568	0	1	556	3114	
3569	0	1	314	3098	
3570	0	1	178	3100	
3571	0	1	104	3110	
3572	0	1	65	3134	
3573	0	1	45	3163	
3574	0	1	36	3176	
3575	0	1	1017	3186	
3576	0	1	2343	3180	
3577	0	1	3082	3151	
3578	0	1	3498	3113	
3579	0	1	3738	3091	
3580	0	1	3872	3092	
3581	0	1	3951	3114	
3582	0	1	3992	3138	
3583	0	1	4008	3163	
3584	0	1	4024	3181	
3585	0	1	3295	3187	
3586	0	1	1816	3177	
3587	0	1	1004	3142	
3588	0	1	558	3110	
3589	0	1	315	3091	
3590	0	1	179	3093	
3591	0	1	104	3118	
3592	0	1	66	3140	
3593	0	1	45	3162	
3594	0	1	37	3182	
3595	0	1	1009	3185	
3596	0	1	2338	3178	
3597	0	1	3082	3151	
3598	0	1	3499	3114	
3599	0	1	3735	3091	
3600	0	1	3872	3091	
3601	0	1	3950	3110	
3602	0	1	3992	3139	
3603	0	1	4014	3166	
3604	0	1	4022	3186	
3605	0	1	3328	3189	
3606	0	1	1832	3185	
3607	0	1	1016	3155	
3608	0	1	565	3111	
3609	0	1	318	3092	
3610	0	1	181	3093	
3611	0	1	106	3114	
3612	0	1	66	3143	
3613	0	1	46	3159	
3614	0	1	37	3182	
3615	0	1	986	3186	
3616	0	1	2324	3178	
3617	0	1	3073	3153	
3618	0	1	3495	3114	
3619	0	1	3730	3091	
3620	0	1	3870	3093	
3621	0	1	3949	3112	
3622	0	1	3992	3136	
3623	0	1	4014	3161	
3624	0	1	4023	3182	
3625	0	1	3390	3187	
3626	0	1	1864	3172	
3627	0	1	1032	3147	
3628	0	1	574	3112	
3629	0	1	324	3093	
3630	0	1	184	3096	
3631	0	1	108	3107	
3632	0	1	67	3131	
3633	0	1	46	3164	
3634	0	1	37	3188	
3635	0	1	911	3195	
3636	0	1	2282	3185	
3637	0	1	3049	3150	
3638	0	1	3481	3114	
3639	0	1	3721	3092	
3640	0	1	3866	3093	
3641	0	1	3947	3112	
3642	0	1	3991	3135	
3643	0	1	4013	3160	
3644	0	1	4024	3182	
3645	0	1	3423	3186	
3646	0	1	1881	3181	
3647	0	1	1041	3157	
3648	0	1	582	3116	
3649	0	1	328	3088	
3650	0	1	186	3090	
3651	0	1	109	3101	
3652	0	1	68	3135	
3653	0	1	46	3163	
3654	0	1	38	3189	
3655	0	1	886	3185	
3656	0	1	2265	3178	
3657	0	1	3044	3148	
3658	0	1	3478	3113	
3659	0	1	3726	3092	
3660	0	1	3867	3090	
3661	0	1	3943	3108	
3662	0	1	3989	3135	
3663	0	1	4014	3162	
3664	0	1	4024	3185	
3665	0	1	3467	3190	
3666	0	1	1906	3177	
3667	0	1	1053	3151	
3668	0	1	590	3110	
3669	0	1	330	3092	
3670	0	1	188	3092	
3671	0	1	110	3117	
3672	0	1	68	3142	
3673	0	1	47	3158	
3674	0	1	38	3178	
3675	0	1	877	3195	
3676	0	1	2263	3186	
3677	0	1	3043	3151	
3678	0	1	3476	3114	
3679	0	1	3727	3092	
3680	0	1	3865	3091	
3681	0	1	3948	3109	
3682	0	1	3990	3135	
3683	0	1	4012	3165	
3684	0	1	4024	3184	
3685	0	1	3488	3190	
3686	0	1	1917	3179	
3687	0	1	1060	3149	
3688	0	1	592	3113	
3689	0	1	334	3092	
3690	0	1	189	3098	
3691	0	1	110	3107	
3692	0	1	69	3135	
3693	0	1	47	3166	
3694	0	1	38	3190	
3695	0	1	834	3186	
3696	0	1	2239	3178	
3697	0	1	3027	3148	
3698	0	1	3467	3115	
3699	0	1	3720	3092	
3700	0	1	3864	3090	
3701	0	1	3946	3107	
3702	0	1	3991	3136	
3703	0	1	4015	3163	
3704	0	1	4025	3181	
3705	0	1	3533	3185	
3706	0	1	1936	3178	
3707	0	1	1068	3158	
3708	0	1	595	3112	
3709	0	1	335	3089	
3710	0	1	190	3097	
3711	0	1	110	3110	
3712	0	1	69	3132	
3713	0	1	48	3158	
3714	0	1	39	3189	
3715	0	1	830	3184	
3716	0	1	2237	3180	
3717	0	1	3026	3152	
3718	0	1	3471	3114	
3719	0	1	3723	3092	
3720	0	1	3866	3092	
3721	0	1	3944	3108	
3722	0	1	3991	3135	
3723	0	1	4015	3164	
3724	0	1	4025	3180	
3725	0	1	3481	3188	
3726	0	1	1912	3176	
3727	0	1	1056	3147	
3728	0	1	588	3122	
3729	0	1	331	3085	
3730	0	1	188	3092	
3731	0	1	110	3114	
3732	0	1	68	3136	
3733	0	1	48	3167	
3734	0	1	38	3183	
3735	0	1	882	3181	
3736	0	1	2267	3178	
3737	0	1	3045	3153	
3738	0	1	3478	3113	
3739	0	1	3722	3091	
3740	0	1	3868	3090	
3741	0	1	3948	3112	
3742	0	1	3991	3136	
3743	0	1	4013	3162	
3744	0	1	4026	3182	
3745	0	1	3409	3190	
3746	0	1	1869	3184	
3747	0	1	1039	3149	
3748	0	1	578	3110	
3749	0	1	324	3100	
3750	0	1	185	3090	
3751	0	1	108	3106	
3752	0	1	67	3144	
3753	0	1	47	3161	
3754	0	1	38	3181	
3755	0	1	936	3187	
3756	0	1	2296	3184	
3757	0	1	3061	3152	
3758	0	1	3487	3114	
3759	0	1	3732	3091	
3760	0	1	3869	3093	
3761	0	1	3944	3110	
3762	0	1	3992	3134	
3763	0	1	4016	3162	
3764	0	1	4024	3182	
3765	0	1	3426	3186	
3766	0	1	1885	3185	
3767	0	1	1043	3150	
3768	0	1	581	3112	
3769	0	1	327	3098	
3770	0	1	186	3090	
3771	0	1	109	3107	
3772	0	1	68	3143	
3773	0	1	48	3166	
3774	0	1	39	3181	
3775	0	1	888	3194	
3776	0	1	2268	3179	
3777	0	1	3044	3149	
3778	0	1	3481	3115	
3779	0	1	3729	3091	
3780	0	1	3868	3091	
3781	0	1	3948	3110	
3782	0	1	3990	3139	
3783	0	1	4012	3163	
3784	0	1	4026	3183	
3785	0	1	3391	3187	
3786	0	1	1865	3185	
3787	0	1	1034	3146	
3788	0	1	577	3109	
3789	0	1	326	3095	
3790	0	1	185	3099	
3791	0	1	109	3106	
3792	0	1	68	3135	
3793	0	1	47	3163	
3794	0	1	39	3189	
3795	0	1	884	3184	
3796	0	1	2270	3179	
3797	0	1	3044	3147	
3798	0	1	3478	3114	
3799	0	1	3726	3091	
3800	0	1	3867	3091	
3801	0	1	3947	3112	
3802	0	1	3988	3135	
3803	0	1	4010	3162	
3804	0	1	4023	3185	
3805	0	1	3467	3189	
3806	0	1	1907	3183	
3807	0	1	1056	3149	
3808	0	1	590	3111	
3809	0	1	333	3094	
3810	0	1	189	3097	
3811	0	1	110	3106	
3812	0	1	70	3130	
3813	0	1	49	3164	
3814	0	1	39	3188	
3815	0	1	852	3194	
3816	0	1	2248	3178	
3817	0	1	3033	3146	
3818	0	1	3473	3114	
3819	0	1	3722	3092	
3820	0	1	3867	3090	
3821	0	1	3948	3110	
3822	0	1	3992	3138	
3823	0	1	4015	3160	
3824	0	1	4024	3182	
3825	0	1	3514	3186	
3826	0	1	1929	3178	
3827	0	1	1069	3154	
3828	0	1	597	3122	
3829	0	1	337	3094	
3830	0	1	191	3088	
3831	0	1	112	3110	
3832	0	1	71	3136	
3833	0	1	49	3170	
3834	0	1	39	3185	
3835	0	1	835	3184	
3836	0	1	2239	3174	
3837	0	1	3030	3148	
3838	0	1	3470	3114	
3839	0	1	3720	3093	
3840	0	1	3863	3090	
3841	0	1	3946	3108	
3842	0	1	3992	3136	
3843	0	1	4014	3165	
3844	0	1	4026	3180	
3845	0	1	3554	3187	
3846	0	1	1955	3174	
3847	0	1	1079	3158	
3848	0	1	602	3117	
3849	0	1	340	3100	
3850	0	1	194	3091	
3851	0	1	113	3116	
3852	0	1	71	3133	
3853	0	1	49	3162	
3854	0	1	39	3187	
3855	0	1	786	3195	
3856	0	1	2211	3186	
3857	0	1	3013	3152	
3858	0	1	3460	3113	
3859	0	1	3712	3093	
3860	0	1	3860	3090	
3861	0	1	3943	3108	
3862	0	1	3991	3132	
3863	0	1	4014	3164	
3864	0	1	4026	3182	
3865	0	1	3637	3189	
3866	0	1	1992	3184	
3867	0	1	1100	3152	
3868	0	1	612	3122	
3869	0	1	344	3092	
3870	0	1	196	3087	
3871	0	1	114	3115	
3872	0	1	71	3136	
3873	0	1	50	3158	
3874	0	1	39	3188	
3875	0	1	728	3188	
3876	0	1	2181	3180	
3877	0	1	3000	3154	
3878	0	1	3452	3116	
3879	0	1	3710	3092	
3880	0	1	3861	3091	
3881	0	1	3944	3111	
3882	0	1	3989	3135	
3883	0	1	4013	3160	
3884	0	1	4026	3185	
3885	0	1	4029	3190	
3886	0	1	2299	3182	
3887	0	1	1266	3156	
3888	0	1	706	3112	
3889	0	1	395	3089	
3890	0	1	222	3099	
3891	0	1	128	3112	
3892	0	1	76	3136	
3893	0	1	50	3159	
3894	0	1	40	3189	
3895	0	1	83	3189	
3896	0	1	633	3177	
3897	0	1	1120	3158	
3898	0	1	1517	3112	
3899	0	1	1865	3092	
3900	0	1	2268	3098	
3901	0	1	2446	3107	
3902	0	1	2290	3134	
3903	0	1	1880	3170	
3904	0	1	1343	3182	
3905	0	1	820	3187	
3906	0	1	481	3186	
3907	0	1	292	3150	
3908	0	1	190	3113	
3909	0	1	135	3099	
3910	0	1	109	3094	
3911	0	1	98	3109	
3912	0	1	93	3133	
3913	0	1	466	3170	
3914	0	1	1104	3184	
3915	0	1	1708	3185	
3916	0	1	2209	3178	
3917	0	1	2651	3157	
3918	0	1	2972	3112	
3919	0	1	3224	3093	
3920	0	1	3522	3092	
3921	0	1	3596	3110	
3922	0	1	3358	3140	
3923	0	1	2900	3162	
3924	0	1	2350	3182	
3925	0	1	1791	3197	
3926	0	1	1341	3181	
3927	0	1	971	3149	
3928	0	1	719	3112	
3929	0	1	529	3098	
3930	0	1	337	3086	
3931	0	1	232	3106	
3932	0	1	536	3144	
3933	0	1	1031	3160	
3934	0	1	1607	3182	
3935	0	1	2164	3196	
3936	0	1	2645	3176	
3937	0	1	3080	3152	
3938	0	1	3392	3115	
3939	0	1	3623	3092	
3940	0	1	3844	3093	
3941	0	1	3965	3109	
3942	0	1	3699	3138	
3943	0	1	3252	3165	
3944	0	1	2688	3190	
3945	0	1	2133	3188	
3946	0	1	1669	3178	
3947	0	1	1263	3156	
3948	0	1	1005	3115	
3949	0	1	818	3089	
3950	0	1	590	3100	
3951	0	1	535	3108	
3952	0	1	775	3142	
3953	0	1	1203	3166	
3954	0	1	1752	3183	
3955	0	1	2316	3191	
3956	0	1	2768	3179	
3957	0	1	3144	3152	
3958	0	1	3423	3112	
3959	0	1	3626	3093	
3960	0	1	3836	3093	
3961	0	1	3952	3113	
3962	0	1	3695	3140	
3963	0	1	3239	3165	
3964	0	1	2672	3182	
3965	0	1	2136	3195	
3966	0	1	1688	3177	
3967	0	1	1314	3148	
3968	0	1	1061	3120	
3969	0	1	856	3094	
3970	0	1	631	3092	
3971	0	1	619	3119	
3972	0	1	872	3139	
3973	0	1	1287	3160	
3974	0	1	1826	3183	
3975	0	1	2361	3197	
3976	0	1	2796	3176	
3977	0	1	3186	3148	
3978	0	1	3454	3115	
3979	0	1	3648	3092	
3980	0	1	3842	3093	
3981	0	1	3886	3114	
3982	0	1	3597	3139	
3983	0	1	3144	3170	
3984	0	1	2606	3187	
3985	0	1	2084	3186	
3986	0	1	1620	3176	
3987	0	1	1236	3154	
3988	0	1	1009	3109	
3989	0	1	858	3097	
3990	0	1	663	3092	
3991	0	1	654	3109	
3992	0	1	889	3147	
3993	0	1	1298	3162	
3994	0	1	1841	3191	
3995	0	1	2392	3189	
3996	0	1	2836	3177	
3997	0	1	3214	3151	
3998	0	1	3451	3112	
3999	0	1	3631	3091	
4000	0	1	3828	3093	
4001	0	1	3825	3114	
4002	0	1	3532	3138	
4003	0	1	3085	3166	
4004	0	1	2539	3191	
4005	0	1	2005	3194	
4006	0	1	1564	3175	
4007	0	1	1190	3144	
4008	0	1	972	3114	
4009	0	1	803	3097	
4010	0	1	617	3102	
4011	0	1	632	3112	
4012	0	1	905	3137	
4013	0	1	1340	3160	
4014	0	1	1893	3181	
4015	0	1	2425	3189	
4016	0	1	2837	3183	
4017	0	1	3185	3151	
4018	0	1	3445	3114	
4019	0	1	3625	3092	
4020	0	1	3817	3095	
4021	0	1	3818	3114	
4022	0	1	3549	3141	
4023	0	1	3127	3166	
4024	0	1	2605	3185	
4025	0	1	2111	3197	
4026	0	1	1682	3178	
4027	0	1	1313	3149	
4028	0	1	1065	3113	
4029	0	1	901	3099	
4030	0	1	726	3102	
4031	0	1	742	3111	
4032	0	1	1011	3140	
4033	0	1	1441	3164	
4034	0	1	1963	3189	
4035	0	1	2493	3196	
4036	0	1	2911	3177	
4037	0	1	3282	3147	
4038	0	1	3536	3113	
4039	0	1	3697	3092	
4040	0	1	3855	3093	
4041	0	1	3898	3114	
4042	0	1	3634	3140	
4043	0	1	3216	3169	
4044	0	1	2697	3182	
4045	0	1	2191	3186	
4046	0	1	1754	3177	
4047	0	1	1396	3155	
4048	0	1	1186	3120	
4049	0	1	1025	3090	
4050	0	1	855	3092	
4051	0	1	873	3118	
4052	0	1	1133	3146	
4053	0	1	1543	3167	
4054	0	1	2095	3182	
4055	0	1	2610	3188	
4056	0	1	3007	3178	
4057	0	1	3333	3146	
4058	0	1	3557	3112	
4059	0	1	3693	3092	
4060	0	1	3845	3092	
4061	0	1	3832	3111	
4062	0	1	3546	3137	
4063	0	1	3124	3163	
4064	0	1	2613	3186	
4065	0	1	2130	3188	
4066	0	1	1739	3177	
4067	0	1	1434	3156	
4068	0	1	1225	3110	
4069	0	1	1090	3090	
4070	0	1	930	3100	
4071	0	1	927	3112	
4072	0	1	1161	3135	
4073	0	1	1592	3170	
4074	0	1	2121	3183	
4075	0	1	2603	3196	
4076	0	1	3004	3174	
4077	0	1	3368	3147	
4078	0	1	3625	3112	
4079	0	1	3778	3092	
4080	0	1	3882	3095	
4081	0	1	3902	3111	
4082	0	1	3601	3139	
4083	0	1	3198	3165	
4084	0	1	2706	3180	
4085	0	1	2235	3188	
4086	0	1	1846	3182	
4087	0	1	1528	3155	
4088	0	1	1316	3111	
4089	0	1	1164	3093	
4090	0	1	1019	3093	
4091	0	1	1057	3115	
4092	0	1	1308	3147	
4093	0	1	1704	3165	
4094	0	1	2200	3184	
4095	0	1	2652	3187	
4096	0	1	3022	3179	
4097	0	1	3340	3150	
4098	0	1	3554	3114	
4099	0	1	3710	3093	
4100	0	1	3835	3093	
4101	0	1	3794	3112	
4102	0	1	3518	3138	
4103	0	1	3127	3169	
4104	0	1	2661	3183	
4105	0	1	2220	3185	
4106	0	1	1849	3179	
4107	0	1	1549	3157	
4108	0	1	1364	3112	
4109	0	1	1208	3093	
4110	0	1	1063	3091	
4111	0	1	1087	3114	
4112	0	1	1312	3146	
4113	0	1	1675	3169	
4114	0	1	2145	3183	
4115	0	1	2570	3189	
4116	0	1	2907	3175	
4117	0	1	3217	3149	
4118	0	1	3421	3115	
4119	0	1	3568	3094	
4120	0	1	3712	3093	
4121	0	1	3680	3112	
4122	0	1	3421	3137	
4123	0	1	3043	3170	
4124	0	1	2585	3183	
4125	0	1	2160	3189	
4126	0	1	1813	3184	
4127	0	1	1533	3156	
4128	0	1	1350	3113	
4129	0	1	1221	3095	
4130	0	1	1087	3090	
4131	0	1	1121	3112	
4132	0	1	1356	3143	
4133	0	1	1721	3172	
4134	0	1	2162	3184	
4135	0	1	2585	3189	
4136	0	1	2921	3177	
4137	0	1	3209	3147	
4138	0	1	3399	3115	
4139	0	1	3519	3093	
4140	0	1	3639	3093	
4141	0	1	3590	3111	
4142	0	1	3348	3136	
4143	0	1	3003	3164	
4144	0	1	2577	3190	
4145	0	1	2161	3188	
4146	0	1	1806	3180	
4147	0	1	1509	3149	
4148	0	1	1315	3114	
4149	0	1	1199	3096	
4150	0	1	1096	3093	
4151	0	1	1160	3120	
4152	0	1	1401	3136	
4153	0	1	1736	3167	
4154	0	1	2147	3185	
4155	0	1	2547	3188	
4156	0	1	2861	3184	
4157	0	1	3131	3146	
4158	0	1	3328	3117	
4159	0	1	3461	3094	
4160	0	1	3564	3093	
4161	0	1	3514	3110	
4162	0	1	3263	3140	
4163	0	1	2912	3170	
4164	0	1	2518	3186	
4165	0	1	2134	3189	
4166	0	1	1793	3176	
4167	0	1	1512	3153	
4168	0	1	1351	3122	
4169	0	1	1238	3092	
4170	0	1	1154	3092	
4171	0	1	1211	3107	
4172	0	1	1437	3136	
4173	0	1	1744	3168	
4174	0	1	2145	3191	
4175	0	1	2513	3193	
4176	0	1	2821	3178	
4177	0	1	3080	3150	
4178	0	1	3263	3113	
4179	0	1	3409	3092	
4180	0	1	3523	3092	
4181	0	1	3477	3113	
4182	0	1	3244	3139	
4183	0	1	2926	3165	
4184	0	1	2526	3182	
4185	0	1	2135	3192	
4186	0	1	1832	3187	
4187	0	1	1566	3150	
4188	0	1	1391	3114	
4189	0	1	1292	3090	
4190	0	1	1226	3089	
4191	0	1	1285	3111	
4192	0	1	1520	3134	
4193	0	1	1842	3168	
4194	0	1	2227	3192	
4195	0	1	2589	3190	
4196	0	1	2875	3180	
4197	0	1	3114	3149	
4198	0	1	3269	3115	
4199	0	1	3381	3095	
4200	0	1	3467	3094	
4201	0	1	3409	3111	
4202	0	1	3187	3137	
4203	0	1	2894	3169	
4204	0	1	2533	3188	
4205	0	1	2161	3188	
4206	0	1	1848	3179	
4207	0	1	1577	3146	
4208	0	1	1417	3114	
4209	0	1	1315	3102	
4210	0	1	1227	3092	
4211	0	1	1279	3110	
4212	0	1	1492	3138	
4213	0	1	1786	3160	
4214	0	1	2138	3183	
4215	0	1	2474	3192	
4216	0	1	2764	3186	
4217	0	1	3014	3156	
4218	0	1	3176	3117	
4219	0	1	3306	3093	
4220	0	1	3392	3090	
4221	0	1	3347	3109	
4222	0	1	3144	3137	
4223	0	1	2852	3168	
4224	0	1	2476	3190	
4225	0	1	2086	3189	
4226	0	1	1758	3181	
4227	0	1	1492	3148	
4228	0	1	1321	3116	
4229	0	1	1191	3099	
4230	0	1	1105	3099	
4231	0	1	1151	3111	
4232	0	1	1365	3134	
4233	0	1	1674	3164	
4234	0	1	2051	3178	
4235	0	1	2424	3191	
4236	0	1	2735	3186	
4237	0	1	2986	3156	
4238	0	1	3159	3116	
4239	0	1	3306	3091	
4240	0	1	3399	3091	
4241	0	1	3352	3112	
4242	0	1	3141	3136	
4243	0	1	2838	3161	
4244	0	1	2468	3182	
4245	0	1	2094	3196	
4246	0	1	1774	3188	
4247	0	1	1507	3150	
4248	0	1	1337	3115	
4249	0	1	1212	3094	
4250	0	1	1113	3088	
4251	0	1	1150	3111	
4252	0	1	1353	3142	
4253	0	1	1656	3170	
4254	0	1	2051	3190	
4255	0	1	2411	3190	
4256	0	1	2717	3181	
4257	0	1	2995	3151	
4258	0	1	3193	3120	
4259	0	1	3328	3097	
4260	0	1	3416	3093	
4261	0	1	3384	3110	
4262	0	1	3190	3134	
4263	0	1	2891	3163	
4264	0	1	2498	3189	
4265	0	1	2095	3192	
4266	0	1	1770	3181	
4267	0	1	1492	3148	
4268	0	1	1301	3116	
4269	0	1	1172	3100	
4270	0	1	1074	3099	
4271	0	1	1096	3111	
4272	0	1	1289	3134	
4273	0	1	1584	3161	
4274	0	1	1958	3183	
4275	0	1	2360	3191	
4276	0	1	2683	3180	
4277	0	1	2978	3153	
4278	0	1	3179	3120	
4279	0	1	3305	3096	
4280	0	1	3410	3092	
4281	0	1	3382	3107	
4282	0	1	3180	3136	
4283	0	1	2859	3168	
4284	0	1	2461	3189	
4285	0	1	2074	3193	
4286	0	1	1744	3180	
4287	0	1	1471	3152	
4288	0	1	1290	3118	
4289	0	1	1168	3090	
4290	0	1	1057	3093	
4291	0	1	1081	3112	
4292	0	1	1268	3140	
4293	0	1	1573	3170	
4294	0	1	1968	3189	
4295	0	1	2379	3189	
4296	0	1	2711	3181	
4297	0	1	2984	3150	
4298	0	1	3176	3116	
4299	0	1	3302	3095	
4300	0	1	3424	3094	
4301	0	1	3392	3110	
4302	0	1	3189	3134	
4303	0	1	2862	3162	
4304	0	1	2460	3183	
4305	0	1	2062	3189	
4306	0	1	1719	3189	
4307	0	1	1431	3148	
4308	0	1	1261	3123	
4309	0	1	1156	3098	
4310	0	1	1055	3088	
4311	0	1	1074	3114	
4312	0	1	1250	3134	
4313	0	1	1563	3161	
4314	0	1	1964	3190	
4315	0	1	2366	3190	
4316	0	1	2673	3179	
4317	0	1	2958	3159	
4318	0	1	3170	3122	
4319	0	1	3325	3094	
4320	0	1	3452	3091	
4321	0	1	3447	3108	
4322	0	1	3223	3134	
4323	0	1	2896	3162	
4324	0	1	2501	3179	
4325	0	1	2079	3186	
4326	0	1	1730	3178	
4327	0	1	1444	3152	
4328	0	1	1273	3119	
4329	0	1	1164	3100	
4330	0	1	1061	3098	
4331	0	1	1082	3108	
4332	0	1	1303	3134	
4333	0	1	1618	3160	
4334	0	1	1997	3185	
4335	0	1	2374	3197	
4336	0	1	2696	3188	
4337	0	1	2983	3157	
4338	0	1	3194	3118	
4339	0	1	3328	3091	
4340	0	1	3445	3090	
4341	0	1	3437	3108	
4342	0	1	3226	3137	
4343	0	1	2903	3162	
4344	0	1	2513	3180	
4345	0	1	2111	3186	
4346	0	1	1773	3181	
4347	0	1	1499	3154	
4348	0	1	1327	3117	
4349	0	1	1197	3094	
4350	0	1	1079	3098	
4351	0	1	1081	3114	
4352	0	1	1254	3136	
4353	0	1	1546	3158	
4354	0	1	1930	3179	
4355	0	1	2323	3188	
4356	0	1	2662	3178	
4357	0	1	2949	3155	
4358	0	1	3154	3122	
4359	0	1	3300	3093	
4360	0	1	3438	3090	
4361	0	1	3444	3103	
4362	0	1	3250	3130	
4363	0	1	2927	3163	
4364	0	1	2506	3182	
4365	0	1	2064	3185	
4366	0	1	1714	3175	
4367	0	1	1412	3153	
4368	0	1	1217	3123	
4369	0	1	1121	3093	
4370	0	1	1016	3083	
4371	0	1	1035	3100	
4372	0	1	1206	3121	
4373	0	1	1514	3151	
4374	0	1	1908	3176	
4375	0	1	2323	3186	
4376	0	1	2681	3178	
4377	0	1	2970	3147	
4378	0	1	3174	3109	
4379	0	1	3324	3083	
4380	0	1	3445	3079	
4381	0	1	3437	3094	
4382	0	1	3249	3119	
4383	0	1	2945	3146	
4384	0	1	2557	3163	
4385	0	1	2162	3171	
4386	0	1	1801	3165	
4387	0	1	1490	3141	
4388	0	1	1293	3109	
4389	0	1	1171	3087	
4390	0	1	1054	3080	
4391	0	1	1075	3090	
4392	0	1	1287	3115	
4393	0	1	1609	3137	
4394	0	1	1985	3170	
4395	0	1	2378	3174	
4396	0	1	2708	3164	
4397	0	1	2990	3134	
4398	0	1	3196	3102	
4399	0	1	3328	3078	
4400	0	1	3443	3074	
4401	0	1	3414	3089	
4402	0	1	3216	3111	
4403	0	1	2911	3136	
4404	0	1	2537	3162	
4405	0	1	2133	3175	
4406	0	1	1781	3167	
4407	0	1	1495	3138	
4408	0	1	1306	3101	
4409	0	1	1197	3070	
4410	0	1	1098	3067	
4411	0	1	1108	3077	
4412	0	1	1272	3106	
4413	0	1	1556	3135	
4414	0	1	1926	3160	
4415	0	1	2305	3171	
4416	0	1	2613	3158	
4417	0	1	2882	3130	
4418	0	1	3092	3094	
4419	0	1	3253	3066	
4420	0	1	3378	3062	
4421	0	1	3373	3078	
4422	0	1	3177	3105	
4423	0	1	2873	3136	
4424	0	1	2508	3159	
4425	0	1	2124	3160	
4426	0	1	1773	3152	
4427	0	1	1483	3126	
4428	0	1	1272	3086	
4429	0	1	1134	3065	
4430	0	1	1043	3068	
4431	0	1	1076	3082	
4432	0	1	1253	3099	
4433	0	1	1540	3124	
4434	0	1	1892	3151	
4435	0	1	2273	3165	
4436	0	1	2601	3151	
4437	0	1	2868	3126	
4438	0	1	3067	3087	
4439	0	1	3210	3063	
4440	0	1	3334	3061	
4441	0	1	3336	3076	
4442	0	1	3160	3100	
4443	0	1	2866	3125	
4444	0	1	2504	3145	
4445	0	1	2097	3158	
4446	0	1	1755	3156	
4447	0	1	1460	3125	
4448	0	1	1260	3086	
4449	0	1	1131	3061	
4450	0	1	1046	3050	
4451	0	1	1068	3068	
4452	0	1	1248	3095	
4453	0	1	1542	3123	
4454	0	1	1909	3149	
4455	0	1	2298	3156	
4456	0	1	2616	3151	
4457	0	1	2876	3123	
4458	0	1	3095	3084	
4459	0	1	3240	3054	
4460	0	1	3328	3038	
4461	0	1	3314	3040	
4462	0	1	3126	3050	
4463	0	1	2841	3057	
4464	0	1	2473	3063	
4465	0	1	2076	3057	
4466	0	1	1768	3030	
4467	0	1	1490	2993	
4468	0	1	1284	2946	
4469	0	1	1173	2913	
4470	0	1	1106	2897	
4471	0	1	1144	2898	
4472	0	1	1339	2893	
4473	0	1	1614	2888	
4474	0	1	1958	2885	
4475	0	1	2332	2873	
4476	0	1	2638	2852	
4477	0	1	2881	2816	
4478	0	1	3066	2773	
4479	0	1	3180	2735	
4480	0	1	3268	2711	
4481	0	1	3254	2705	
4482	0	1	3072	2709	
4483	0	1	2773	2712	
4484	0	1	2417	2718	
4485	0	1	2038	2720	
4486	0	1	1706	2711	
4487	0	1	1430	2682	
4488	0	1	1236	2638	
4489	0	1	1130	2611	
4490	0	1	1038	2602	
4491	0	1	1043	2615	
4492	0	1	1201	2631	
4493	0	1	1464	2635	
4494	0	1	1786	2652	
4495	0	1	2150	2659	
4496	0	1	2454	2655	
4497	0	1	2721	2631	
4498	0	1	2922	2602	
4499	0	1	3073	2580	
4500	0	1	3189	2576	
4501	0	1	3168	2590	
4502	0	1	2981	2615	
4503	0	1	2693	2646	
4504	0	1	2352	2681	
4505	0	1	1984	2705	
4506	0	1	1668	2709	
4507	0	1	1405	2692	
4508	0	1	1229	2659	
4509	0	1	1127	2651	
4510	0	1	1045	2664	
4511	0	1	1063	2705	
4512	0	1	1237	2762	
4513	0	1	1508	2825	
4514	0	1	1843	2882	
4515	0	1	2219	2912	
4516	0	1	2524	2923	
4517	0	1	2786	2911	
4518	0	1	2964	2885	
4519	0	1	3084	2869	
4520	0	1	3182	2875	
4521	0	1	3158	2905	
4522	0	1	2981	2949	
4523	0	1	2707	2990	
4524	0	1	2372	3018	
4525	0	1	2001	3039	
4526	0	1	1677	3037	
4527	0	1	1400	3019	
4528	0	1	1219	2985	
4529	0	1	1111	2961	
4530	0	1	1036	2962	
4531	0	1	1060	2984	
4532	0	1	1231	3018	
4533	0	1	1517	3042	
4534	0	1	1873	3070	
4535	0	1	2249	3085	
4536	0	1	2558	3078	
4537	0	1	2819	3055	
4538	0	1	3034	3020	
4539	0	1	3160	2995	
4540	0	1	3257	2991	
4541	0	1	3231	3010	
4542	0	1	3050	3038	
4543	0	1	2776	3070	
4544	0	1	2448	3095	
4545	0	1	2076	3111	
4546	0	1	1755	3110	
4547	0	1	1472	3088	
4548	0	1	1284	3046	
4549	0	1	1181	3019	
4550	0	1	1091	3012	
4551	0	1	1080	3024	
4552	0	1	1234	3055	
4553	0	1	1512	3087	
4554	0	1	1877	3115	
4555	0	1	2259	3129	
4556	0	1	2573	3124	
4557	0	1	2848	3095	
4558	0	1	3044	3058	
4559	0	1	3176	3028	
4560	0	1	3277	3024	
4561	0	1	3268	3042	
4562	0	1	3078	3070	
4563	0	1	2787	3094	
4564	0	1	2438	3118	
4565	0	1	2073	3129	
4566	0	1	1757	3129	
4567	0	1	1486	3109	
4568	0	1	1286	3075	
4569	0	1	1160	3045	
4570	0	1	1072	3033	
4571	0	1	1072	3047	
4572	0	1	1221	3073	
4573	0	1	1491	3100	
4574	0	1	1816	3126	
4575	0	1	2191	3137	
4576	0	1	2503	3129	
4577	0	1	2769	3107	
4578	0	1	2982	3072	
4579	0	1	3128	3047	
4580	0	1	3240	3042	
4581	0	1	3232	3055	
4582	0	1	3058	3082	
4583	0	1	2779	3107	
4584	0	1	2448	3128	
4585	0	1	2077	3142	
4586	0	1	1767	3133	
4587	0	1	1502	3111	
4588	0	1	1307	3080	
4589	0	1	1174	3054	
4590	0	1	1063	3049	
4591	0	1	1049	3055	
4592	0	1	1186	3078	
4593	0	1	1444	3107	
4594	0	1	1781	3133	
4595	0	1	2166	3140	
4596	0	1	2469	3140	
4597	0	1	2736	3115	
4598	0	1	2931	3078	
4599	0	1	3084	3051	
4600	0	1	3208	3044	
4601	0	1	3229	3058	
4602	0	1	3083	3081	
4603	0	1	2818	3109	
4604	0	1	2467	3137	
4605	0	1	2072	3153	
4606	0	1	1725	3150	
4607	0	1	1416	3122	
4608	0	1	1197	3080	
4609	0	1	1091	3055	
4610	0	1	1002	3044	
4611	0	1	998	3058	
4612	0	1	1116	3088	
4613	0	1	1368	3117	
4614	0	1	1712	3142	
4615	0	1	2099	3158	
4616	0	1	2423	3151	
4617	0	1	2703	3124	
4618	0	1	2916	3086	
4619	0	1	3068	3059	
4620	0	1	3190	3051	
4621	0	1	3199	3062	
4622	0	1	3064	3087	
4623	0	1	2788	3115	
4624	0	1	2442	3138	
4625	0	1	2046	3151	
4626	0	1	1719	3147	
4627	0	1	1430	3124	
4628	0	1	1218	3087	
4629	0	1	1081	3068	
4630	0	1	964	3050	
4631	0	1	937	3075	
4632	0	1	1084	3087	
4633	0	1	1363	3128	
4634	0	1	1695	3142	
4635	0	1	2095	3160	
4636	0	1	2436	3149	
4637	0	1	2716	3126	
4638	0	1	2937	3093	
4639	0	1	3080	3063	
4640	0	1	3208	3058	
4641	0	1	3228	3067	
4642	0	1	3088	3099	
4643	0	1	2792	3120	
4644	0	1	2413	3147	
4645	0	1	2015	3162	
4646	0	1	1681	3156	
4647	0	1	1402	3125	
4648	0	1	1225	3091	
4649	0	1	1117	3064	
4650	0	1	997	3063	
4651	0	1	964	3072	
4652	0	1	1088	3096	
4653	0	1	1360	3120	
4654	0	1	1713	3143	
4655	0	1	2125	3156	
4656	0	1	2452	3154	
4657	0	1	2719	3133	
4658	0	1	2920	3097	
4659	0	1	3046	3066	
4660	0	1	3170	3056	
4661	0	1	3200	3070	
4662	0	1	3062	3096	
4663	0	1	2768	3119	
4664	0	1	2402	3144	
4665	0	1	2008	3159	
4666	0	1	1667	3161	
4667	0	1	1390	3132	
4668	0	1	1202	3090	
4669	0	1	1058	3061	
4670	0	1	919	3056	
4671	0	1	883	3073	
4672	0	1	1021	3102	
4673	0	1	1297	3132	
4674	0	1	1645	3156	
4675	0	1	2039	3166	
4676	0	1	2370	3162	
4677	0	1	2667	3134	
4678	0	1	2893	3095	
4679	0	1	3025	3066	
4680	0	1	3145	3056	
4681	0	1	3161	3070	
4682	0	1	3013	3098	
4683	0	1	2726	3127	
4684	0	1	2375	3153	
4685	0	1	1969	3168	
4686	0	1	1636	3155	
4687	0	1	1350	3130	
4688	0	1	1143	3098	
4689	0	1	1018	3068	
4690	0	1	900	3055	
4691	0	1	877	3072	
4692	0	1	1023	3096	
4693	0	1	1297	3123	
4694	0	1	1631	3147	
4695	0	1	2032	3162	
4696	0	1	2366	3161	
4697	0	1	2634	3140	
4698	0	1	2844	3100	
4699	0	1	2989	3069	
4700	0	1	3133	3061	
4701	0	1	3166	3075	
4702	0	1	3008	3096	
4703	0	1	2730	3126	
4704	0	1	2380	3150	
4705	0	1	1973	3165	
4706	0	1	1621	3162	
4707	0	1	1321	3139	
4708	0	1	1122	3107	
4709	0	1	1021	3079	
4710	0	1	927	3070	
4711	0	1	925	3083	
4712	0	1	1056	3104	
4713	0	1	1306	3127	
4714	0	1	1625	3152	
4715	0	1	2008	3164	
4716	0	1	2333	3162	
4717	0	1	2634	3141	
4718	0	1	2860	3104	
4719	0	1	3005	3075	
4720	0	1	3139	3068	
4721	0	1	3154	3079	
4722	0	1	3017	3107	
4723	0	1	2736	3136	
4724	0	1	2369	3158	
4725	0	1	1958	3169	
4726	0	1	1597	3164	
4727	0	1	1323	3138	
4728	0	1	1128	3103	
4729	0	1	1019	3076	
4730	0	1	920	3064	
4731	0	1	930	3082	
4732	0	1	1106	3104	
4733	0	1	1373	3131	
4734	0	1	1681	3155	
4735	0	1	2078	3166	
4736	0	1	2406	3163	
4737	0	1	2675	3140	
4738	0	1	2909	3104	
4739	0	1	3045	3075	
4740	0	1	3163	3066	
4741	0	1	3195	3080	
4742	0	1	3061	3106	
4743	0	1	2755	3133	
4744	0	1	2374	3156	
4745	0	1	1977	3168	
4746	0	1	1635	3163	
4747	0	1	1349	3144	
4748	0	1	1137	3108	
4749	0	1	1024	3079	
4750	0	1	923	3071	
4751	0	1	903	3087	
4752	0	1	1038	3113	
4753	0	1	1294	3142	
4754	0	1	1606	3164	
4755	0	1	1991	3178	
4756	0	1	2340	3166	
4757	0	1	2637	3143	
4758	0	1	2854	3104	
4759	0	1	2989	3076	
4760	0	1	3127	3066	
4761	0	1	3168	3079	
4762	0	1	3031	3104	
4763	0	1	2746	3131	
4764	0	1	2407	3156	
4765	0	1	2009	3166	
4766	0	1	1693	3165	
4767	0	1	1396	3142	
4768	0	1	1184	3107	
4769	0	1	1055	3079	
4770	0	1	935	3070	
4771	0	1	905	3084	
4772	0	1	1053	3111	
4773	0	1	1338	3140	
4774	0	1	1680	3163	
4775	0	1	2070	3173	
4776	0	1	2375	3163	
4777	0	1	2642	3141	
4778	0	1	2876	3102	
4779	0	1	3040	3074	
4780	0	1	3187	3065	
4781	0	1	3219	3077	
4782	0	1	3079	3102	
4783	0	1	2781	3131	
4784	0	1	2415	3157	
4785	0	1	2005	3170	
4786	0	1	1671	3168	
4787	0	1	1404	3145	
4788	0	1	1188	3107	
4789	0	1	1060	3072	
4790	0	1	943	3059	
4791	0	1	916	3068	
4792	0	1	1041	3093	
4793	0	1	1312	3121	
4794	0	1	1672	3146	
4795	0	1	2076	3161	
4796	0	1	2398	3165	
4797	0	1	2666	3140	
4798	0	1	2878	3098	
4799	0	1	3028	3067	
4800	0	1	3150	3062	
4801	0	1	3176	3075	
4802	0	1	3027	3100	
4803	0	1	2732	3120	
4804	0	1	2378	3152	
4805	0	1	1978	3159	
4806	0	1	1650	3154	
4807	0	1	1388	3135	
4808	0	1	1204	3094	
4809	0	1	1080	3070	
4810	0	1	973	3055	
4811	0	1	949	3071	
4812	0	1	1099	3092	
4813	0	1	1378	3125	
4814	0	1	1731	3144	
4815	0	1	2134	3158	
4816	0	1	2464	3157	
4817	0	1	2736	3135	
4818	0	1	2956	3099	
4819	0	1	3100	3069	
4820	0	1	3247	3057	
4821	0	1	3289	3068	
4822	0	1	3143	3092	
4823	0	1	2854	3120	
4824	0	1	2492	3141	
4825	0	1	2069	3158	
4826	0	1	1703	3158	
4827	0	1	1408	3136	
4828	0	1	1209	3100	
4829	0	1	1094	3069	
4830	0	1	958	3052	
4831	0	1	925	3063	
4832	0	1	1053	3098	
4833	0	1	1305	3119	
4834	0	1	1637	3149	
4835	0	1	2039	3153	
4836	0	1	2364	3156	
4837	0	1	2637	3127	
4838	0	1	2829	3095	
4839	0	1	2970	3061	
4840	0	1	3117	3052	
4841	0	1	3159	3064	
4842	0	1	3022	3092	
4843	0	1	2751	3117	
4844	0	1	2403	3142	
4845	0	1	1997	3153	
4846	0	1	1651	3155	
4847	0	1	1366	3127	
4848	0	1	1163	3092	
4849	0	1	1036	3068	
4850	0	1	937	3057	
4851	0	1	890	3061	
4852	0	1	1007	3087	
4853	0	1	1277	3117	
4854	0	1	1606	3137	
4855	0	1	1999	3153	
4856	0	1	2328	3151	
4857	0	1	2602	3130	
4858	0	1	2810	3092	
4859	0	1	2952	3063	
4860	0	1	3096	3054	
4861	0	1	3141	3066	
4862	0	1	2996	3088	
4863	0	1	2718	3114	
4864	0	1	2382	3134	
4865	0	1	2001	3149	
4866	0	1	1661	3149	
4867	0	1	1382	3130	
4868	0	1	1181	3094	
4869	0	1	1063	3056	
4870	0	1	949	3046	
4871	0	1	913	3059	
4872	0	1	1053	3083	
4873	0	1	1325	3113	
4874	0	1	1640	3139	
4875	0	1	2036	3147	
4876	0	1	2362	3148	
4877	0	1	2630	3129	
4878	0	1	2850	3087	
4879	0	1	2996	3054	
4880	0	1	3119	3046	
4881	0	1	3137	3059	
4882	0	1	2983	3086	
4883	0	1	2705	3117	
4884	0	1	2360	3137	
4885	0	1	1986	3146	
4886	0	1	1667	3142	
4887	0	1	1387	3120	
4888	0	1	1165	3084	
4889	0	1	1042	3048	
4890	0	1	931	3044	
4891	0	1	912	3058	
4892	0	1	1026	3087	
4893	0	1	1274	3117	
4894	0	1	1612	3132	
4895	0	1	2005	3144	
4896	0	1	2349	3144	
4897	0	1	2656	3119	
4898	0	1	2896	3086	
4899	0	1	3049	3052	
4900	0	1	3170	3045	
4901	0	1	3203	3053	
4902	0	1	3066	3084	
4903	0	1	2811	3104	
4904	0	1	2465	3134	
4905	0	1	2078	3143	
4906	0	1	1765	3141	
4907	0	1	1521	3115	
4908	0	1	1339	3077	
4909	0	1	1252	3057	
4910	0	1	1137	3045	
4911	0	1	1095	3051	
4912	0	1	1205	3077	
4913	0	1	1465	3106	
4914	0	1	1806	3125	
4915	0	1	2230	3139	
4916	0	1	2598	3135	
4917	0	1	2896	3113	
4918	0	1	3166	3078	
4919	0	1	3387	3049	
4920	0	1	3531	3039	
4921	0	1	3612	3051	
4922	0	1	3655	3076	
4923	0	1	3429	3104	
4924	0	1	3010	3125	
4925	0	1	2591	3140	
4926	0	1	2262	3141	
4927	0	1	1983	3121	
4928	0	1	1761	3082	
4929	0	1	1650	3046	
4930	0	1	1554	3035	
4931	0	1	1551	3044	
4932	0	1	1677	3071	
4933	0	1	1941	3102	
4934	0	1	2302	3133	
4935	0	1	2739	3143	
4936	0	1	3117	3137	
4937	0	1	3367	3111	
4938	0	1	3507	3074	
4939	0	1	3585	3044	
4940	0	1	3630	3035	
4941	0	1	3652	3046	
4942	0	1	3664	3070	
4943	0	1	3421	3099	
4944	0	1	2996	3129	
4945	0	1	2506	3142	
4946	0	1	1962	3132	
4947	0	1	1311	3107	
4948	0	1	855	3072	
4949	0	1	616	3035	
4950	0	1	395	3030	
4951	0	1	303	3044	
4952	0	1	422	3070	
4953	0	1	720	3098	
4954	0	1	1105	3125	
4955	0	1	1588	3142	
4956	0	1	2075	3137	
4957	0	1	2468	3115	
4958	0	1	2792	3074	
4959	0	1	3057	3040	
4960	0	1	3277	3030	
4961	0	1	3370	3041	
4962	0	1	3272	3066	
4963	0	1	3057	3094	
4964	0	1	2785	3115	
4965	0	1	2455	3134	
4966	0	1	2178	3131	
4967	0	1	1893	3106	
4968	0	1	1675	3067	
4969	0	1	1555	3043	
4970	0	1	1461	3035	
4971	0	1	1454	3039	
4972	0	1	1577	3070	
4973	0	1	1867	3088	
4974	0	1	2246	3114	
4975	0	1	2667	3135	
4976	0	1	3036	3125	
4977	0	1	3307	3101	
4978	0	1	3464	3067	
4979	0	1	3552	3034	
4980	0	1	3599	3025	
4981	0	1	3624	3037	
4982	0	1	3637	3061	
4983	0	1	3370	3087	
4984	0	1	2886	3113	
4985	0	1	2400	3134	
4986	0	1	2009	3122	
4987	0	1	1673	3099	
4988	0	1	1419	3071	
4989	0	1	1261	3032	
4990	0	1	1071	3020	
4991	0	1	950	3041	
4992	0	1	984	3058	
4993	0	1	1148	3085	
4994	0	1	1483	3119	
4995	0	1	1900	3123	
4996	0	1	2272	3119	
4997	0	1	2612	3104	
4998	0	1	2859	3057	
4999	0	1	3037	3030	
5000	0	1	3194	3020	
5001	0	1	3263	3030	
5002	0	1	3160	3058	
5003	0	1	2943	3080	
5004	0	1	2564	3106	
5005	0	1	2126	3123	
5006	0	1	1733	3110	
5007	0	1	1361	3088	
5008	0	1	1050	3053	
5009	0	1	880	3012	
5010	0	1	716	3008	
5011	0	1	621	3021	
5012	0	1	703	3034	
5013	0	1	901	3060	
5014	0	1	1158	3092	
5015	0	1	1556	3091	
5016	0	1	1938	3085	
5017	0	1	2250	3068	
5018	0	1	2515	3020	
5019	0	1	2666	2990	
5020	0	1	2816	2978	
5021	0	1	2912	2986	
5022	0	1	2862	3013	
5023	0	1	2709	3034	
5024	0	1	2471	3065	
5025	0	1	2161	3064	
5026	0	1	1854	3071	
5027	0	1	1591	3038	
5028	0	1	1410	3002	
5029	0	1	1319	2967	
5030	0	1	1215	2961	
5031	0	1	1174	2972	
5032	0	1	1293	2996	
5033	0	1	1550	3020	
5034	0	1	1960	3053	
5035	0	1	2397	3053	
5036	0	1	2751	3058	
5037	0	1	3022	3027	
5038	0	1	3210	2990	
5039	0	1	3300	2959	
5040	0	1	3404	2948	
5041	0	1	3407	2962	
5042	0	1	3261	2984	
5043	0	1	2982	3014	
5044	0	1	2630	3041	
5045	0	1	2220	3049	
5046	0	1	1861	3052	
5047	0	1	1540	3017	
5048	0	1	1296	2986	
5049	0	1	1122	2952	
5050	0	1	940	2942	
5051	0	1	814	2964	
5052	0	1	839	2979	
5053	0	1	968	3014	
5054	0	1	1200	3033	
5055	0	1	1524	3054	
5056	0	1	1820	3038	
5057	0	1	2078	3014	
5058	0	1	2280	2985	
5059	0	1	2426	2947	
5060	0	1	2590	2939	
5061	0	1	2671	2958	
5062	0	1	2616	2976	
5063	0	1	2395	3009	
5064	0	1	2090	3037	
5065	0	1	1752	3040	
5066	0	1	1477	3037	
5067	0	1	1283	3019	
5068	0	1	1154	2973	
5069	0	1	1106	2953	
5070	0	1	1075	2936	
5071	0	1	1115	2951	
5072	0	1	1296	2982	
5073	0	1	1630	3003	
5074	0	1	2069	3038	
5075	0	1	2547	3038	
5076	0	1	2969	3038	
5077	0	1	3266	3012	
5078	0	1	3440	2974	
5079	0	1	3538	2944	
5080	0	1	3591	2937	
5081	0	1	3615	2950	
5082	0	1	3635	2979	
5083	0	1	3642	3007	
5084	0	1	3446	3032	
5085	0	1	3045	3040	
5086	0	1	2745	3037	
5087	0	1	2501	3019	
5088	0	1	2368	2978	
5089	0	1	2267	2944	
5090	0	1	2078	2938	
5091	0	1	1932	2958	
5092	0	1	1971	2988	
5093	0	1	2191	3014	
5094	0	1	2492	3034	
5095	0	1	2848	3046	
5096	0	1	3131	3045	
5097	0	1	3342	3016	
5098	0	1	3464	2980	
5099	0	1	3530	2951	
5100	0	1	3560	2945	
5101	0	1	3584	2960	
5102	0	1	3510	2988	
5103	0	1	3055	3018	
5104	0	1	2585	3050	
5105	0	1	2097	3051	
5106	0	1	1670	3058	
5107	0	1	1321	3028	
5108	0	1	1088	2984	
5109	0	1	954	2964	
5110	0	1	854	2952	
5111	0	1	881	2966	
5112	0	1	1073	3002	
5113	0	1	1383	3022	
5114	0	1	1744	3054	
5115	0	1	2142	3057	
5116	0	1	2465	3052	
5117	0	1	2727	3030	
5118	0	1	2915	2987	
5119	0	1	3059	2963	
5120	0	1	3208	2950	
5121	0	1	3232	2967	
5122	0	1	3069	2989	
5123	0	1	2747	3018	
5124	0	1	2336	3045	
5125	0	1	1911	3048	
5126	0	1	1520	3038	
5127	0	1	1165	3021	
5128	0	1	899	2974	
5129	0	1	695	2942	
5130	0	1	482	2944	
5131	0	1	393	2946	
5132	0	1	468	2968	
5133	0	1	726	3004	
5134	0	1	1082	3017	
5135	0	1	1474	3022	
5136	0	1	1795	3022	
5137	0	1	2070	2983	
5138	0	1	2266	2950	
5139	0	1	2405	2919	
5140	0	1	2546	2906	
5141	0	1	2588	2922	
5142	0	1	2457	2944	
5143	0	1	2199	2964	
5144	0	1	1864	2982	
5145	0	1	1506	2991	
5146	0	1	1218	2991	
5147	0	1	1002	2952	
5148	0	1	869	2912	
5149	0	1	788	2886	
5150	0	1	698	2883	
5151	0	1	708	2883	
5152	0	1	882	2915	
5153	0	1	1193	2932	
5154	0	1	1570	2950	
5155	0	1	1999	2966	
5156	0	1	2357	2950	
5157	0	1	2648	2920	
5158	0	1	2872	2885	
5159	0	1	3062	2850	
5160	0	1	3256	2844	
5161	0	1	3326	2853	
5162	0	1	3193	2876	
5163	0	1	2906	2903	
5164	0	1	2533	2915	
5165	0	1	2169	2926	
5166	0	1	1846	2923	
5167	0	1	1573	2886	
5168	0	1	1404	2855	
5169	0	1	1276	2820	
5170	0	1	1133	2812	
5171	0	1	1081	2832	
5172	0	1	1198	2845	
5173	0	1	1461	2873	
5174	0	1	1813	2898	
5175	0	1	2149	2899	
5176	0	1	2410	2896	
5177	0	1	2661	2868	
5178	0	1	2855	2828	
5179	0	1	2993	2804	
5180	0	1	3147	2797	
5181	0	1	3173	2808	
5182	0	1	3030	2836	
5183	0	1	2754	2857	
5184	0	1	2385	2884	
5185	0	1	2016	2892	
5186	0	1	1689	2879	
5187	0	1	1409	2858	
5188	0	1	1226	2823	
5189	0	1	1101	2796	
5190	0	1	959	2798	
5191	0	1	945	2803	
5192	0	1	1092	2829	
5193	0	1	1357	2868	
5194	0	1	1689	2882	
5195	0	1	2071	2897	
5196	0	1	2391	2890	
5197	0	1	2666	2866	
5198	0	1	2860	2836	
5199	0	1	3016	2807	
5200	0	1	3179	2808	
5201	0	1	3211	2823	
5202	0	1	3060	2854	
5203	0	1	2776	2891	
5204	0	1	2402	2912	
5205	0	1	2014	2925	
5206	0	1	1701	2925	
5207	0	1	1439	2898	
5208	0	1	1263	2862	
5209	0	1	1138	2848	
5210	0	1	1013	2839	
5211	0	1	998	2858	
5212	0	1	1152	2893	
5213	0	1	1416	2923	
5214	0	1	1778	2959	
5215	0	1	2157	2963	
5216	0	1	2462	2959	
5217	0	1	2734	2940	
5218	0	1	2937	2900	
5219	0	1	3104	2883	
5220	0	1	3272	2880	
5221	0	1	3292	2904	
5222	0	1	3132	2934	
5223	0	1	2841	2968	
5224	0	1	2468	3000	
5225	0	1	2090	3010	
5226	0	1	1775	3012	
5227	0	1	1491	2977	
5228	0	1	1303	2948	
5229	0	1	1155	2926	
5230	0	1	1022	2923	
5231	0	1	998	2952	
5232	0	1	1126	2980	
5233	0	1	1370	3020	
5234	0	1	1704	3040	
5235	0	1	2081	3059	
5236	0	1	2377	3044	
5237	0	1	2612	3025	
5238	0	1	2798	2984	
5239	0	1	2958	2969	
5240	0	1	3126	2968	
5241	0	1	3160	2988	
5242	0	1	3001	3025	
5243	0	1	2720	3052	
5244	0	1	2370	3077	
5245	0	1	2019	3096	
5246	0	1	1734	3081	
5247	0	1	1489	3055	
5248	0	1	1339	3028	
5249	0	1	1221	3002	
5250	0	1	1100	3010	
5251	0	1	1089	3022	
5252	0	1	1230	3053	
5253	0	1	1480	3092	
5254	0	1	1824	3107	
5255	0	1	2169	3118	
5256	0	1	2435	3117	
5257	0	1	2654	3082	
5258	0	1	2802	3057	
5259	0	1	2929	3029	
5260	0	1	3063	3033	
5261	0	1	3057	3053	
5262	0	1	2872	3083	
5263	0	1	2579	3119	
5264	0	1	2187	3135	
5265	0	1	1803	3144	
5266	0	1	1494	3142	
5267	0	1	1258	3106	
5268	0	1	1096	3084	
5269	0	1	960	3058	
5270	0	1	807	3055	
5271	0	1	760	3075	
5272	0	1	872	3104	
5273	0	1	1097	3136	
5274	0	1	1413	3160	
5275	0	1	1725	3169	
5276	0	1	1991	3167	
5277	0	1	2198	3138	
5278	0	1	2339	3099	
5279	0	1	2471	3077	
5280	0	1	2616	3078	
5281	0	1	2653	3102	
5282	0	1	2526	3134	
5283	0	1	2254	3164	
5284	0	1	1895	3179	
5285	0	1	1542	3183	
5286	0	1	1247	3180	
5287	0	1	1004	3158	
5288	0	1	839	3127	
5289	0	1	698	3095	
5290	0	1	562	3099	
5291	0	1	543	3112	
5292	0	1	689	3149	
5293	0	1	950	3182	
5294	0	1	1310	3205	
5295	0	1	1685	3214	
5296	0	1	1989	3197	
5297	0	1	2241	3168	
5298	0	1	2428	3141	
5299	0	1	2580	3121	
5300	0	1	2730	3112	
5301	0	1	2767	3132	
5302	0	1	2615	3166	
5303	0	1	2317	3186	
5304	0	1	1968	3217	
5305	0	1	1618	3215	
5306	0	1	1332	3206	
5307	0	1	1093	3187	
5308	0	1	932	3147	
5309	0	1	780	3129	
5310	0	1	643	3125	
5311	0	1	620	3143	
5312	0	1	747	3178	
5313	0	1	1009	3194	
5314	0	1	1349	3223	
5315	0	1	1718	3223	
5316	0	1	2019	3214	
5317	0	1	2257	3192	
5318	0	1	2420	3149	
5319	0	1	2544	3133	
5320	0	1	2673	3131	
5321	0	1	2699	3147	
5322	0	1	2545	3179	
5323	0	1	2270	3194	
5324	0	1	1916	3214	
5325	0	1	1584	3226	
5326	0	1	1323	3207	
5327	0	1	1097	3178	
5328	0	1	957	3153	
5329	0	1	845	3121	
5330	0	1	725	3116	
5331	0	1	704	3140	
5332	0	1	856	3152	
5333	0	1	1123	3180	
5334	0	1	1463	3204	
5335	0	1	1806	3198	
5336	0	1	2086	3189	
5337	0	1	2354	3159	
5338	0	1	2511	3121	
5339	0	1	2643	3104	
5340	0	1	2777	3092	
5341	0	1	2789	3108	
5342	0	1	2636	3134	
5343	0	1	2379	3147	
5344	0	1	2038	3165	
5345	0	1	1703	3170	
5346	0	1	1449	3152	
5347	0	1	1247	3129	
5348	0	1	1110	3083	
5349	0	1	977	3057	
5350	0	1	850	3062	
5351	0	1	834	3067	
5352	0	1	985	3085	
5353	0	1	1232	3113	
5354	0	1	1546	3121	
5355	0	1	1873	3132	
5356	0	1	2166	3114	
5357	0	1	2412	3080	
5358	0	1	2574	3052	
5359	0	1	2708	3018	
5360	0	1	2833	3018	
5361	0	1	2837	3028	
5362	0	1	2666	3045	
5363	0	1	2386	3072	
5364	0	1	2033	3079	
5365	0	1	1723	3087	
5366	0	1	1476	3062	
5367	0	1	1280	3036	
5368	0	1	1156	3003	
5369	0	1	1038	2966	
5370	0	1	932	2966	
5371	0	1	943	2978	
5372	0	1	1114	2986	
5373	0	1	1379	3006	
5374	0	1	1724	3018	
5375	0	1	2067	3017	
5376	0	1	2341	3010	
5377	0	1	2555	2971	
5378	0	1	2709	2934	
5379	0	1	2848	2913	
5380	0	1	2987	2900	
5381	0	1	2992	2911	
5382	0	1	2834	2924	
5383	0	1	2581	2939	
5384	0	1	2239	2955	
5385	0	1	1914	2949	
5386	0	1	1652	2944	
5387	0	1	1445	2903	
5388	0	1	1330	2875	
5389	0	1	1233	2841	
5390	0	1	1133	2841	
5391	0	1	1118	2848	
5392	0	1	1239	2868	
5393	0	1	1467	2882	
5394	0	1	1798	2895	
5395	0	1	2124	2903	
5396	0	1	2369	2882	
5397	0	1	2557	2860	
5398	0	1	2691	2820	
5399	0	1	2815	2804	
5400	0	1	2930	2793	
5401	0	1	2897	2810	
5402	0	1	2691	2821	
5403	0	1	2411	2850	
5404	0	1	2078	2858	
5405	0	1	1768	2862	
5406	0	1	1542	2858	
5407	0	1	1346	2818	
5408	0	1	1228	2800	
5409	0	1	1109	2776	
5410	0	1	1010	2768	
5411	0	1	1036	2779	
5412	0	1	1190	2805	
5413	0	1	1444	2820	
5414	0	1	1796	2843	
5415	0	1	2107	2842	
5416	0	1	2350	2836	
5417	0	1	2524	2806	
5418	0	1	2647	2780	
5419	0	1	2792	2756	
5420	0	1	2901	2758	
5421	0	1	2875	2769	
5422	0	1	2710	2796	
5423	0	1	2437	2815	
5424	0	1	2067	2837	
5425	0	1	1728	2841	
5426	0	1	1474	2826	
5427	0	1	1280	2798	
5428	0	1	1183	2777	
5429	0	1	1075	2751	
5430	0	1	963	2761	
5431	0	1	968	2766	
5432	0	1	1124	2792	
5433	0	1	1396	2814	
5434	0	1	1738	2827	
5435	0	1	2030	2833	
5436	0	1	2275	2824	
5437	0	1	2454	2805	
5438	0	1	2550	2767	
5439	0	1	2661	2756	
5440	0	1	2773	2753	
5441	0	1	2744	2769	
5442	0	1	2555	2790	
5443	0	1	2284	2815	
5444	0	1	1952	2836	
5445	0	1	1651	2840	
5446	0	1	1423	2828	
5447	0	1	1251	2803	
5448	0	1	1170	2769	
5449	0	1	1073	2753	
5450	0	1	985	2749	
5451	0	1	1012	2764	
5452	0	1	1175	2789	
5453	0	1	1432	2810	
5454	0	1	1754	2830	
5455	0	1	2042	2836	
5456	0	1	2264	2824	
5457	0	1	2443	2795	
5458	0	1	2555	2766	
5459	0	1	2669	2750	
5460	0	1	2769	2747	
5461	0	1	2760	2764	
5462	0	1	2593	2790	
5463	0	1	2328	2812	
5464	0	1	2010	2830	
5465	0	1	1719	2835	
5466	0	1	1498	2818	
5467	0	1	1347	2792	
5468	0	1	1285	2763	
5469	0	1	1202	2750	
5470	0	1	1092	2750	
5471	0	1	1083	2760	
5472	0	1	1210	2780	
5473	0	1	1461	2805	
5474	0	1	1781	2825	
5475	0	1	2084	2830	
5476	0	1	2326	2822	
5477	0	1	2494	2795	
5478	0	1	2583	2767	
5479	0	1	2704	2748	
5480	0	1	2831	2746	
5481	0	1	2828	2758	
5482	0	1	2654	2776	
5483	0	1	2371	2792	
5484	0	1	2039	2807	
5485	0	1	1714	2811	
5486	0	1	1466	2803	
5487	0	1	1308	2780	
5488	0	1	1235	2761	
5489	0	1	1154	2745	
5490	0	1	1069	2744	
5491	0	1	1099	2751	
5492	0	1	1287	2763	
5493	0	1	1541	2780	
5494	0	1	1837	2791	
5495	0	1	2100	2797	
5496	0	1	2295	2789	
5497	0	1	2451	2770	
5498	0	1	2535	2744	
5499	0	1	2626	2724	
5500	0	1	2719	2720	
5501	0	1	2688	2729	
5502	0	1	2508	2746	
5503	0	1	2236	2764	
5504	0	1	1943	2775	
5505	0	1	1661	2783	
5506	0	1	1450	2778	
5507	0	1	1292	2763	
5508	0	1	1199	2731	
5509	0	1	1088	2710	
5510	0	1	982	2713	
5511	0	1	985	2721	
5512	0	1	1130	2742	
5513	0	1	1362	2767	
5514	0	1	1640	2779	
5515	0	1	1893	2780	
5516	0	1	2076	2770	
5517	0	1	2224	2747	
5518	0	1	2318	2728	
5519	0	1	2406	2709	
5520	0	1	2480	2714	
5521	0	1	2432	2726	
5522	0	1	2284	2738	
5523	0	1	2052	2766	
5524	0	1	1772	2773	
5525	0	1	1518	2784	
5526	0	1	1346	2771	
5527	0	1	1221	2757	
5528	0	1	1173	2726	
5529	0	1	1137	2720	
5530	0	1	1117	2712	
5531	0	1	1186	2732	
5532	0	1	1402	2744	
5533	0	1	1691	2771	
5534	0	1	1995	2778	
5535	0	1	2256	2792	
5536	0	1	2466	2780	
5537	0	1	2622	2759	
5538	0	1	2702	2737	
5539	0	1	2766	2724	
5540	0	1	2836	2725	
5541	0	1	2805	2741	
5542	0	1	2626	2765	
5543	0	1	2368	2781	
5544	0	1	2074	2794	
5545	0	1	1804	2799	
5546	0	1	1606	2801	
5547	0	1	1461	2788	
5548	0	1	1364	2757	
5549	0	1	1251	2742	
5550	0	1	1122	2752	
5551	0	1	1123	2759	
5552	0	1	1281	2775	
5553	0	1	1527	2802	
5554	0	1	1799	2809	
5555	0	1	2022	2820	
5556	0	1	2173	2821	
5557	0	1	2272	2796	
5558	0	1	2315	2777	
5559	0	1	2387	2770	
5560	0	1	2475	2769	
5561	0	1	2468	2788	
5562	0	1	2309	2799	
5563	0	1	2088	2820	
5564	0	1	1838	2834	
5565	0	1	1630	2839	
5566	0	1	1474	2831	
5567	0	1	1362	2816	
5568	0	1	1314	2800	
5569	0	1	1246	2793	
5570	0	1	1164	2799	
5571	0	1	1184	2812	
5572	0	1	1321	2830	
5573	0	1	1547	2847	
5574	0	1	1823	2859	
5575	0	1	2075	2862	
5576	0	1	2244	2860	
5577	0	1	2351	2842	
5578	0	1	2398	2826	
5579	0	1	2475	2820	
5580	0	1	2552	2823	
5581	0	1	2522	2836	
5582	0	1	2341	2845	
5583	0	1	2078	2872	
5584	0	1	1788	2879	
5585	0	1	1525	2884	
5586	0	1	1340	2887	
5587	0	1	1216	2867	
5588	0	1	1171	2856	
5589	0	1	1095	2839	
5590	0	1	1012	2852	
5591	0	1	1032	2855	
5592	0	1	1202	2873	
5593	0	1	1454	2891	
5594	0	1	1717	2903	
5595	0	1	1955	2914	
5596	0	1	2125	2906	
5597	0	1	2259	2896	
5598	0	1	2308	2874	
5599	0	1	2341	2870	
5600	0	1	2399	2869	
5601	0	1	2353	2886	
5602	0	1	2192	2893	
5603	0	1	1975	2911	
5604	0	1	1698	2930	
5605	0	1	1466	2931	
5606	0	1	1289	2924	
5607	0	1	1149	2916	
5608	0	1	1083	2895	
5609	0	1	1007	2895	
5610	0	1	918	2891	
5611	0	1	928	2909	
5612	0	1	1092	2914	
5613	0	1	1339	2930	
5614	0	1	1602	2952	
5615	0	1	1822	2951	
5616	0	1	2001	2949	
5617	0	1	2096	2935	
5618	0	1	2130	2917	
5619	0	1	2178	2917	
5620	0	1	2260	2911	
5621	0	1	2227	2926	
5622	0	1	2040	2937	
5623	0	1	1798	2959	
5624	0	1	1559	2969	
5625	0	1	1348	2971	
5626	0	1	1205	2976	
5627	0	1	1106	2951	
5628	0	1	1049	2944	
5629	0	1	987	2937	
5630	0	1	944	2935	
5631	0	1	976	2953	
5632	0	1	1130	2961	
5633	0	1	1363	2984	
5634	0	1	1628	2983	
5635	0	1	1858	2997	
5636	0	1	2048	2984	
5637	0	1	2171	2980	
5638	0	1	2235	2958	
5639	0	1	2316	2962	
5640	0	1	2400	2957	
5641	0	1	2405	2974	
5642	0	1	2267	2984	
5643	0	1	2066	2997	
5644	0	1	1822	3007	
5645	0	1	1619	3010	
5646	0	1	1476	3008	
5647	0	1	1387	2997	
5648	0	1	1375	2983	
5649	0	1	1329	2978	
5650	0	1	1274	2980	
5651	0	1	1295	2991	
5652	0	1	1445	3001	
5653	0	1	1667	3016	
5654	0	1	1925	3029	
5655	0	1	2129	3037	
5656	0	1	2275	3037	
5657	0	1	2388	3027	
5658	0	1	2438	3012	
5659	0	1	2505	3002	
5660	0	1	2562	3007	
5661	0	1	2517	3017	
5662	0	1	2354	3028	
5663	0	1	2111	3041	
5664	0	1	1826	3060	
5665	0	1	1589	3059	
5666	0	1	1441	3052	
5667	0	1	1368	3041	
5668	0	1	1352	3032	
5669	0	1	1299	3022	
5670	0	1	1233	3023	
5671	0	1	1261	3038	
5672	0	1	1424	3053	
5673	0	1	1647	3068	
5674	0	1	1911	3084	
5675	0	1	2139	3089	
5676	0	1	2313	3087	
5677	0	1	2422	3072	
5678	0	1	2477	3057	
5679	0	1	2541	3052	
5680	0	1	2617	3057	
5681	0	1	2583	3064	
5682	0	1	2423	3075	
5683	0	1	2193	3088	
5684	0	1	1936	3095	
5685	0	1	1737	3098	
5686	0	1	1597	3096	
5687	0	1	1506	3087	
5688	0	1	1477	3075	
5689	0	1	1443	3072	
5690	0	1	1401	3077	
5691	0	1	1424	3088	
5692	0	1	1577	3100	
5693	0	1	1795	3111	
5694	0	1	2065	3121	
5695	0	1	2307	3126	
5696	0	1	2467	3126	
5697	0	1	2573	3116	
5698	0	1	2604	3105	
5699	0	1	2661	3099	
5700	0	1	2724	3098	
5701	0	1	2688	3104	
5702	0	1	2515	3111	
5703	0	1	2273	3124	
5704	0	1	2008	3126	
5705	0	1	1778	3131	
5706	0	1	1601	3132	
5707	0	1	1490	3126	
5708	0	1	1442	3120	
5709	0	1	1393	3119	
5710	0	1	1329	3116	
5711	0	1	1364	3118	
5712	0	1	1521	3128	
5713	0	1	1749	3139	
5714	0	1	2016	3143	
5715	0	1	2254	3146	
5716	0	1	2404	3143	
5717	0	1	2502	3136	
5718	0	1	2552	3129	
5719	0	1	2592	3126	
5720	0	1	2625	3128	
5721	0	1	2579	3133	
5722	0	1	2422	3137	
5723	0	1	2196	3149	
5724	0	1	1940	3157	
5725	0	1	1731	3158	
5726	0	1	1579	3159	
5727	0	1	1481	3159	
5728	0	1	1448	3149	
5729	0	1	1402	3144	
5730	0	1	1347	3138	
5731	0	1	1374	3145	
5732	0	1	1523	3151	
5733	0	1	1756	3163	
5734	0	1	2037	3173	
5735	0	1	2269	3180	
5736	0	1	2414	3180	
5737	0	1	2529	3171	
5738	0	1	2574	3159	
5739	0	1	2618	3157	
5740	0	1	2690	3159	
5741	0	1	2671	3168	
5742	0	1	2525	3180	
5743	0	1	2297	3192	
5744	0	1	2028	3201	
5745	0	1	1799	3208	
5746	0	1	1642	3210	
5747	0	1	1554	3200	
5748	0	1	1529	3188	
5749	0	1	1500	3185	
5750	0	1	1447	3191	
5751	0	1	1477	3197	
5752	0	1	1618	3209	
5753	0	1	1828	3214	
5754	0	1	2089	3229	
5755	0	1	2306	3241	
5756	0	1	2458	3243	
5757	0	1	2573	3240	
5758	0	1	2640	3232	
5759	0	1	2697	3228	
5760	0	1	2749	3234	
5761	0	1	2720	3240	
5762	0	1	2573	3254	
5763	0	1	2357	3270	
5764	0	1	2100	3269	
5765	0	1	1870	3273	
5766	0	1	1719	3277	
5767	0	1	1632	3268	
5768	0	1	1606	3267	
5769	0	1	1578	3272	
5770	0	1	1568	3276	
5771	0	1	1627	3284	
5772	0	1	1783	3295	
5773	0	1	2004	3300	
5774	0	1	2251	3306	
5775	0	1	2449	3311	
5776	0	1	2606	3311	
5777	0	1	2693	3310	
5778	0	1	2699	3306	
5779	0	1	2720	3310	
5780	0	1	2763	3312	
5781	0	1	2725	3312	
5782	0	1	2553	3319	
5783	0	1	2336	3328	
5784	0	1	2095	3332	
5785	0	1	1873	3339	
5786	0	1	1738	3340	
5787	0	1	1647	3338	
5788	0	1	1624	3339	
5789	0	1	1598	3328	
5790	0	1	1570	3328	
5791	0	1	1602	3343	
5792	0	1	1740	3358	
5793	0	1	1935	3358	
5794	0	1	2178	3361	
5795	0	1	2396	3367	
5796	0	1	2536	3364	
5797	0	1	2616	3360	
5798	0	1	2651	3360	
5799	0	1	2696	3362	
5800	0	1	2731	3365	
5801	0	1	2687	3368	
5802	0	1	2545	3370	
5803	0	1	2346	3378	
5804	0	1	2118	3381	
5805	0	1	1905	3392	
5806	0	1	1738	3392	
5807	0	1	1646	3385	
5808	0	1	1615	3383	
5809	0	1	1593	3380	
5810	0	1	1560	3388	
5811	0	1	1591	3397	
5812	0	1	1735	3397	
5813	0	1	1932	3403	
5814	0	1	2154	3404	
5815	0	1	2354	3409	
5816	0	1	2495	3410	
5817	0	1	2582	3408	
5818	0	1	2622	3411	
5819	0	1	2639	3406	
5820	0	1	2654	3408	
5821	0	1	2594	3413	
5822	0	1	2451	3426	
5823	0	1	2273	3426	
5824	0	1	2050	3428	
5825	0	1	1822	3435	
5826	0	1	1660	3443	
5827	0	1	1590	3432	
5828	0	1	1575	3431	
5829	0	1	1539	3427	
5830	0	1	1489	3437	
5831	0	1	1508	3441	
5832	0	1	1626	3441	
5833	0	1	1836	3454	
5834	0	1	2075	3448	
5835	0	1	2270	3456	
5836	0	1	2393	3455	
5837	0	1	2479	3450	
5838	0	1	2516	3455	
5839	0	1	2533	3446	
5840	0	1	2548	3450	
5841	0	1	2494	3461	
5842	0	1	2355	3459	
5843	0	1	2165	3474	
5844	0	1	1957	3468	
5845	0	1	1775	3476	
5846	0	1	1660	3473	
5847	0	1	1598	3472	
5848	0	1	1609	3464	
5849	0	1	1630	3471	
5850	0	1	1620	3463	
5851	0	1	1660	3468	
5852	0	1	1810	3476	
5853	0	1	2004	3476	
5854	0	1	2206	3487	
5855	0	1	2366	3479	
5856	0	1	2462	3490	
5857	0	1	2516	3479	
5858	0	1	2545	3482	
5859	0	1	2549	3479	
5860	0	1	2559	3474	
5861	0	1	2496	3488	
5862	0	1	2362	3483	
5863	0	1	2184	3493	
5864	0	1	1982	3499	
5865	0	1	1804	3500	
5866	0	1	1689	3498	
5867	0	1	1656	3488	
5868	0	1	1683	3482	
5869	0	1	1715	3482	
5870	0	1	1738	3475	
5871	0	1	1800	3482	
5872	0	1	1951	3488	
5873	0	1	2098	3498	
5874	0	1	2259	3505	
5875	0	1	2419	3499	
5876	0	1	2505	3499	
5877	0	1	2530	3491	
5878	0	1	2494	3488	
5879	0	1	2438	3488	
5880	0	1	2400	3493	
5881	0	1	2324	3497	
5882	0	1	2194	3500	
5883	0	1	2032	3494	
5884	0	1	1853	3498	
5885	0	1	1713	3498	
5886	0	1	1648	3499	
5887	0	1	1639	3498	
5888	0	1	1675	3495	
5889	0	1	1718	3485	
5890	0	1	1753	3485	
5891	0	1	1802	3491	
5892	0	1	1921	3495	
5893	0	1	2088	3502	
5894	0	1	2257	3498	
5895	0	1	2393	3500	
5896	0	1	2454	3501	
5897	0	1	2474	3487	
5898	0	1	2463	3491	
5899	0	1	2425	3485	
5900	0	1	2396	3482	
5901	0	1	2330	3482	
5902	0	1	2182	3483	
5903	0	1	1998	3493	
5904	0	1	1843	3487	
5905	0	1	1724	3496	
5906	0	1	1658	3480	
5907	0	1	1618	3489	
5908	0	1	1629	3473	
5909	0	1	1656	3480	
5910	0	1	1664	3466	
5911	0	1	1707	3472	
5912	0	1	1843	3481	
5913	0	1	1992	3474	
5914	0	1	2135	3473	
5915	0	1	2257	3478	
5916	0	1	2309	3468	
5917	0	1	2317	3468	
5918	0	1	2271	3458	
5919	0	1	2234	3448	
5920	0	1	2200	3453	
5921	0	1	2105	3442	
5922	0	1	1953	3448	
5923	0	1	1772	3454	
5924	0	1	1588	3447	
5925	0	1	1429	3455	
5926	0	1	1347	3447	
5927	0	1	1337	3448	
5928	0	1	1394	3439	
5929	0	1	1459	3430	
5930	0	1	1497	3436	
5931	0	1	1575	3434	
5932	0	1	1721	3446	
5933	0	1	1897	3444	
5934	0	1	2047	3453	
5935	0	1	2153	3447	
5936	0	1	2216	3459	
5937	0	1	2235	3447	
5938	0	1	2197	3450	
5939	0	1	2158	3450	
5940	0	1	2140	3451	
5941	0	1	2070	3466	
5942	0	1	1948	3462	
5943	0	1	1787	3471	
5944	0	1	1623	3480	
5945	0	1	1493	3475	
5946	0	1	1439	3480	
5947	0	1	1448	3478	
5948	0	1	1499	3471	
5949	0	1	1530	3475	
5950	0	1	1569	3472	
5951	0	1	1654	3482	
5952	0	1	1788	3485	
5953	0	1	1941	3488	
5954	0	1	2089	3499	
5955	0	1	2204	3492	
5956	0	1	2253	3500	
5957	0	1	2240	3498	
5958	0	1	2185	3492	
5959	0	1	2145	3500	
5960	0	1	2107	3496	
5961	0	1	2005	3508	
5962	0	1	1859	3501	
5963	0	1	1714	3516	
5964	0	1	1559	3508	
5965	0	1	1436	3519	
5966	0	1	1379	3516	
5967	0	1	1404	3510	
5968	0	1	1488	3507	
5969	0	1	1557	3504	
5970	0	1	1598	3513	
5971	0	1	1666	3510	
5972	0	1	1795	3517	
5973	0	1	1951	3517	
5974	0	1	2098	3527	
5975	0	1	2187	3519	
5976	0	1	2246	3517	
5977	0	1	2249	3519	
5978	0	1	2222	3510	
5979	0	1	2157	3516	
5980	0	1	2114	3509	
5981	0	1	2030	3508	
5982	0	1	1911	3520	
5983	0	1	1759	3510	
5984	0	1	1608	3518	
5985	0	1	1496	3522	
5986	0	1	1450	3512	
5987	0	1	1470	3510	
5988	0	1	1519	3514	
5989	0	1	1577	3500	
5990	0	1	1634	3504	
5991	0	1	1728	3516	
5992	0	1	1864	3509	
5993	0	1	2023	3517	
5994	0	1	2171	3517	
5995	0	1	2282	3518	
5996	0	1	2314	3520	
5997	0	1	2296	3515	
5998	0	1	2235	3505	
5999	0	1	2171	3511	
6000	0	1	2098	3498	
6001	0	1	2003	3506	
6002	0	1	1847	3510	
6003	0	1	1672	3509	
6004	0	1	1503	3520	
6005	0	1	1397	3508	
6006	0	1	1325	3519	
6007	0	1	1282	3505	
6008	0	1	1255	3510	
6009	0	1	1215	3503	
6010	0	1	1208	3501	
6011	0	1	1273	3513	
6012	0	1	1407	3511	
6013	0	1	1571	3518	
6014	0	1	1734	3512	
6015	0	1	1867	3518	
6016	0	1	1932	3511	
6017	0	1	1948	3506	
6018	0	1	1932	3512	
6019	0	1	1918	3495	
6020	0	1	1910	3510	
6021	0	1	1866	3501	
6022	0	1	1773	3516	
6023	0	1	1652	3511	
6024	0	1	1549	3520	
6025	0	1	1483	3518	
6026	0	1	1471	3519	
6027	0	1	1511	3510	
6028	0	1	1588	3508	
6029	0	1	1651	3509	
6030	0	1	1692	3504	
6031	0	1	1776	3511	
6032	0	1	1902	3512	
6033	0	1	2050	3520	
6034	0	1	2225	3520	
6035	0	1	2336	3528	
6036	0	1	2391	3516	
6037	0	1	2408	3520	
6038	0	1	2370	3513	
6039	0	1	2334	3510	
6040	0	1	2295	3514	
6041	0	1	2220	3512	
6042	0	1	2080	3523	
6043	0	1	1901	3518	
6044	0	1	1755	3527	
6045	0	1	1649	3523	
6046	0	1	1620	3526	
6047	0	1	1634	3517	
6048	0	1	1692	3511	
6049	0	1	1753	3511	
6050	0	1	1807	3509	
6051	0	1	1904	3519	
6052	0	1	2046	3516	
6053	0	1	2200	3526	
6054	0	1	2361	3515	
6055	0	1	2461	3528	
6056	0	1	2492	3518	
6057	0	1	2476	3520	
6058	0	1	2411	3512	
6059	0	1	2379	3509	
6060	0	1	2351	3517	
6061	0	1	2267	3512	
6062	0	1	2128	3518	
6063	0	1	1986	3522	
6064	0	1	1845	3519	
6065	0	1	1736	3531	
6066	0	1	1677	3526	
6067	0	1	1670	3515	
6068	0	1	1705	3509	
6069	0	1	1759	3506	
6070	0	1	1788	3507	
6071	0	1	1870	3512	
6072	0	1	2007	3510	
6073	0	1	2168	3517	
6074	0	1	2315	3522	
6075	0	1	2418	3526	
6076	0	1	2475	3528	
6077	0	1	2480	3520	
6078	0	1	2413	3509	
6079	0	1	2350	3507	
6080	0	1	2306	3508	
6081	0	1	2228	3512	
6082	0	1	2090	3512	
6083	0	1	1930	3516	
6084	0	1	1776	3520	
6085	0	1	1681	3517	
6086	0	1	1674	3520	
6087	0	1	1705	3510	
6088	0	1	1755	3512	
6089	0	1	1792	3503	
6090	0	1	1842	3507	
6091	0	1	1927	3510	
6092	0	1	2068	3514	
6093	0	1	2217	3519	
6094	0	1	2378	3516	
6095	0	1	2480	3519	
6096	0	1	2526	3516	
6097	0	1	2530	3511	
6098	0	1	2484	3508	
6099	0	1	2447	3507	
6100	0	1	2396	3509	
6101	0	1	2295	3512	
6102	0	1	2176	3514	
6103	0	1	2025	3510	
6104	0	1	1859	3511	
6105	0	1	1780	3518	
6106	0	1	1774	3517	
6107	0	1	1794	3507	
6108	0	1	1877	3499	
6109	0	1	1950	3501	
6110	0	1	2003	3508	
6111	0	1	2088	3510	
6112	0	1	2214	3514	
6113	0	1	2366	3517	
6114	0	1	2491	3510	
6115	0	1	2561	3509	
6116	0	1	2572	3511	
6117	0	1	2538	3509	
6118	0	1	2475	3505	
6119	0	1	2411	3498	
6120	0	1	2364	3495	
6121	0	1	2268	3496	
6122	0	1	2129	3503	
6123	0	1	1986	3505	
6124	0	1	1838	3516	
6125	0	1	1731	3515	
6126	0	1	1690	3509	
6127	0	1	1698	3499	
6128	0	1	1755	3500	
6129	0	1	1823	3494	
6130	0	1	1880	3490	
6131	0	1	1965	3498	
6132	0	1	2117	3499	
6133	0	1	2274	3509	
6134	0	1	2397	3499	
6135	0	1	2468	3509	
6136	0	1	2500	3495	
6137	0	1	2492	3498	
6138	0	1	2431	3490	
6139	0	1	2383	3485	
